ECG,EDA,EMG,TEMP
125618,2396,822,27.00
125649,2403,825,27.00
125700,2401,823,27.00
125705,2413,822,27.00
125749,2398,823,27.00
125782,2398,823,27.00
125806,2402,823,27.00
125814,2398,823,27.00
125832,2399,825,27.00
125828,2401,827,27.00
125827,2397,826,27.00
125821,2398,821,27.00
125821,2393,826,27.00
125816,2395,823,27.00
125816,2409,825,27.00
125797,2390,823,27.00
125792,2393,823,27.00
125782,2429,824,27.00
125770,2395,823,27.00
125754,2393,821,27.00
125729,2398,821,27.00
125712,2398,819,27.00
125679,2400,819,27.00
125668,2396,826,27.00
125669,2394,827,27.00
125631,2401,821,27.00
125587,2399,822,27.00
125574,2399,822,27.00
125537,2403,822,27.00
125545,2395,823,27.00
125528,2400,823,27.00
125534,2401,823,27.00
125512,2401,826,27.00
125492,2395,826,27.00
125490,2398,825,27.00
125498,2397,827,27.00
125505,2398,821,27.00
125519,2395,825,27.00
125529,2394,821,27.00
125526,2391,819,27.00
125529,2393,823,27.00
125519,2402,823,27.00
125518,2423,822,27.00
125519,2394,822,27.00
125510,2401,822,27.00
125507,2393,817,27.00
125523,2395,818,27.00
125527,2394,819,27.00
125551,2399,823,27.00
125579,2399,825,27.00
125578,2395,822,27.00
125567,2400,822,27.00
125581,2399,822,27.00
125579,2398,822,27.00
125566,2395,822,27.00
125582,2398,823,27.00
125590,2399,823,27.00
125568,2396,822,27.00
125557,2395,822,27.00
125547,2410,820,27.00
125558,2398,822,27.00
125584,2395,821,27.00
125594,2390,820,27.00
125622,2397,822,27.00
125669,2396,817,27.00
125708,2398,821,27.00
125734,2399,822,27.00
125783,2400,821,27.00
125814,2398,823,27.00
125822,2399,822,27.00
125778,2397,823,27.00
125707,2397,821,27.00
125586,2403,822,27.00
125493,2391,823,27.00
125440,2395,822,27.00
125334,2395,823,27.00
125144,2391,825,27.00
124939,2393,822,27.00
124681,2396,822,27.00
124356,2397,822,27.00
124064,2403,823,27.00
123903,2402,822,27.00
123879,2402,819,27.00
123938,2402,817,27.00
124015,2403,816,27.00
124032,2403,820,27.00
124022,2402,820,27.00
124044,2407,821,27.00
123993,2407,822,27.00
123863,2410,821,27.00
123690,2405,825,27.00
123474,2402,823,27.00
123283,2405,819,27.00
123115,2407,821,27.00
123002,2403,821,27.00
123234,2405,822,27.00
123813,2399,822,27.00
124097,2403,821,27.00
124251,2401,823,27.00
124393,2403,825,27.00
124435,2400,823,27.00
124446,2400,823,27.00
124460,2395,826,27.00
124462,2400,822,27.00
124461,2405,823,27.00
124465,2405,821,27.00
124454,2404,819,27.00
124413,2402,821,27.00
124367,2403,818,27.00
124333,2400,818,27.00
124260,2401,821,27.00
124217,2411,819,27.00
124181,2413,823,27.00
124134,2409,821,27.00
124073,2406,822,27.00
124016,2406,821,27.00
123948,2406,823,27.00
123905,2406,823,27.00
123894,2406,823,27.00
123911,2405,825,27.00
123943,2405,820,27.00
123967,2410,821,27.00
123984,2405,825,27.00
123987,2409,822,27.00
123997,2404,818,27.00
124025,2408,818,27.00
124009,2403,817,27.00
123984,2403,822,27.00
123938,2407,821,27.00
123906,2405,821,27.00
123862,2405,821,27.00
123828,2403,821,27.00
123814,2403,819,27.00
123770,2407,826,27.00
123721,2411,823,27.00
123711,2407,821,27.00
123693,2410,823,27.00
123680,2403,823,27.00
123629,2411,823,27.00
123615,2403,822,27.00
123611,2405,822,27.00
123617,2407,822,27.00
123587,2407,822,27.00
123569,2406,823,27.00
123578,2406,823,27.00
123590,2406,822,27.00
123579,2403,827,27.00
123563,2406,821,27.00
123576,2409,823,27.00
123579,2403,824,27.00
123611,2405,822,27.00
123645,2410,822,27.00
123635,2409,823,27.00
123629,2412,820,27.00
123601,2405,822,27.00
123593,2410,822,27.00
123593,2407,823,27.00
123601,2407,825,27.00
123629,2405,824,27.00
123639,2411,824,27.00
123647,2409,819,27.00
123652,2407,823,27.00
123642,2403,823,27.00
123634,2404,823,27.00
123654,2403,823,27.00
123667,2401,823,27.00
123665,2406,822,27.00
123681,2413,819,27.00
123664,2405,821,27.00
123674,2403,820,27.00
123689,2405,818,27.00
123696,2405,822,27.00
123695,2407,823,27.00
123714,2416,823,27.00
123742,2403,820,27.00
123753,2407,822,27.00
123820,2398,825,27.00
123830,2406,822,27.00
123852,2406,823,27.00
123834,2405,820,27.00
123857,2409,821,27.00
123861,2403,819,27.00
123838,2406,820,27.00
123850,2406,820,27.00
123862,2405,822,27.00
123869,2407,822,27.00
123870,2406,823,27.00
123867,2407,826,27.00
123905,2409,825,27.00
123929,2405,820,27.00
123947,2409,825,27.00
123968,2410,823,27.00
123982,2407,824,27.00
123992,2407,822,27.00
123968,2406,823,27.00
123958,2407,825,27.00
123942,2407,823,27.00
123931,2405,822,27.00
123924,2399,825,27.00
123930,2397,822,27.00
123919,2405,823,27.00
123929,2411,826,27.00
123941,2406,825,27.00
123933,2406,823,27.00
123916,2407,821,27.00
123924,2403,821,27.00
123906,2406,825,27.00
123894,2411,823,27.00
123877,2406,826,27.00
123876,2415,822,27.00
123842,2403,823,27.00
123784,2404,827,27.00
123765,2403,822,27.00
123740,2405,821,27.00
123709,2402,816,27.00
123697,2409,819,27.00
123684,2406,823,27.00
123659,2404,821,27.00
123666,2411,822,27.00
123667,2406,823,27.00
123707,2411,825,27.00
123743,2406,826,27.00
123765,2408,826,27.00
123791,2409,827,27.00
123813,2407,826,27.00
123830,2407,822,27.00
123834,2407,822,27.00
123887,2405,822,27.00
123896,2406,826,27.00
123894,2403,824,27.00
123885,2409,821,27.00
123895,2406,823,27.00
123858,2407,823,27.00
123832,2401,825,27.00
123799,2407,823,27.00
123753,2401,824,27.00
123720,2404,821,27.00
123693,2401,826,27.00
123675,2406,825,27.00
123680,2409,823,27.00
123681,2404,824,27.00
123691,2406,822,27.00
123662,2400,822,27.00
123668,2397,823,27.00
123707,2403,821,27.00
123778,2397,819,27.00
123865,2396,817,27.00
123954,2401,820,27.00
124021,2398,820,27.00
124067,2400,822,27.00
124123,2401,823,27.00
124149,2402,823,27.00
124172,2402,823,27.00
124152,2396,822,27.00
124032,2397,821,27.00
123838,2397,816,27.00
123552,2403,821,27.00
123205,2405,822,27.00
122849,2405,823,27.00
122515,2401,822,27.00
122192,2403,823,27.00
121941,2405,823,27.00
121697,2407,826,27.00
121509,2407,821,27.00
121414,2405,825,27.00
121447,2407,821,27.00
121401,2406,823,27.00
121305,2406,825,27.00
121168,2406,824,27.00
121025,2408,823,27.00
120998,2406,826,27.00
121130,2405,826,27.00
121386,2399,823,27.00
121690,2406,826,27.00
121967,2399,821,27.00
122172,2404,821,27.00
122542,2401,817,27.00
122582,2405,820,27.00
122567,2432,826,27.00
122463,2402,823,27.00
122489,2400,823,27.00
122624,2406,825,27.00
122766,2403,818,27.00
122881,2404,823,27.00
122966,2405,823,27.00
123040,2403,823,27.00
123155,2407,824,27.00
123243,2405,827,27.00
123315,2396,822,27.00
123276,2397,821,27.00
123181,2431,826,27.00
123100,2397,821,27.00
123081,2399,824,27.00
123049,2395,819,27.00
123003,2395,820,27.00
122945,2400,821,27.00
122883,2399,823,27.00
122833,2395,825,27.00
122819,2399,821,27.00
122839,2397,825,27.00
122798,2400,821,27.00
122732,2400,825,27.00
122687,2403,827,27.00
122661,2400,823,27.00
122640,2403,824,27.00
122644,2399,819,27.00
122711,2400,819,27.00
122768,2406,827,27.00
122835,2407,821,27.00
122835,2398,820,27.00
122781,2406,823,27.00
122734,2405,823,27.00
122724,2407,826,27.00
122700,2405,825,27.00
122626,2411,825,27.00
122546,2400,821,27.00
122469,2407,825,27.00
122341,2407,825,27.00
122210,2406,823,27.00
122131,2407,825,27.00
122058,2409,821,27.00
121979,2401,823,27.00
121851,2403,826,27.00
121697,2405,826,27.00
121535,2403,825,27.00
121422,2406,822,27.00
121417,2409,818,27.00
121506,2402,820,27.00
121732,2409,823,27.00
121977,2406,829,27.00
122173,2405,821,27.00
122400,2403,822,27.00
122632,2402,823,27.00
122747,2403,822,27.00
122772,2401,819,27.00
122763,2406,819,27.00
122735,2405,818,27.00
122718,2403,818,27.00
122673,2406,823,27.00
122628,2405,822,27.00
122610,2406,823,27.00
122616,2403,821,27.00
122614,2406,822,27.00
122585,2407,825,27.00
122609,2401,822,27.00
122620,2407,825,27.00
122638,2404,826,27.00
122629,2401,826,27.00
122629,2404,823,27.00
122689,2413,825,27.00
122776,2407,823,27.00
122883,2401,822,27.00
122912,2404,820,27.00
122952,2405,825,27.00
122995,2402,817,27.00
123046,2400,819,27.00
123058,2405,819,27.00
123066,2403,822,27.00
123086,2408,827,27.00
123080,2405,824,27.00
123065,2404,822,27.00
123041,2402,822,27.00
123006,2406,821,27.00
122956,2409,818,27.00
122875,2401,819,27.00
122784,2405,831,27.00
122700,2405,822,27.00
122630,2404,820,27.00
122598,2404,822,27.00
122571,2406,822,27.00
122538,2407,827,27.00
122484,2405,826,27.00
122448,2406,823,27.00
122419,2410,822,27.00
122419,2405,822,27.00
122400,2405,822,27.00
122436,2414,822,27.00
122474,2407,828,27.00
122468,2405,823,27.00
122424,2405,822,27.00
122390,2405,820,27.00
122416,2412,819,27.00
122411,2407,821,27.00
122452,2402,822,27.00
122456,2407,822,27.00
122487,2407,821,27.00
122489,2405,823,27.00
122505,2403,821,27.00
122539,2435,823,27.00
122599,2403,823,27.00
122611,2403,818,27.00
122636,2403,820,27.00
122663,2407,819,27.00
122705,2409,821,27.00
122721,2408,823,27.00
122734,2411,823,27.00
122731,2410,825,27.00
122765,2403,823,27.00
122732,2404,823,27.00
122668,2403,822,27.00
122619,2403,822,27.00
122563,2407,822,27.00
122553,2406,823,27.00
122565,2408,822,27.00
122565,2406,826,27.00
122563,2412,823,27.00
122576,2405,821,27.00
122567,2402,819,27.00
122569,2407,820,27.00
122600,2406,823,27.00
122582,2411,822,27.00
122562,2407,825,27.00
122549,2405,820,27.00
122549,2407,827,27.00
122558,2405,822,27.00
122587,2416,826,27.00
122626,2406,826,27.00
122653,2401,823,27.00
122684,2415,822,27.00
122709,2411,821,27.00
122697,2405,816,27.00
122742,2407,821,27.00
122764,2402,818,27.00
122788,2404,823,27.00
122769,2409,817,27.00
122750,2403,819,27.00
122739,2409,823,27.00
122743,2410,822,27.00
122756,2407,823,27.00
122796,2407,825,27.00
122793,2404,822,27.00
122772,2405,826,27.00
122782,2406,825,27.00
122781,2406,819,27.00
122830,2405,822,27.00
122878,2407,821,27.00
122892,2407,823,27.00
122902,2409,823,27.00
122955,2407,825,27.00
122989,2413,826,27.00
123030,2403,821,27.00
123057,2405,823,27.00
123117,2409,823,27.00
123162,2414,825,27.00
123199,2407,822,27.00
123227,2407,826,27.00
123232,2407,823,27.00
123271,2405,823,27.00
123304,2401,823,27.00
123314,2402,823,27.00
123309,2405,825,27.00
123330,2402,821,27.00
123335,2404,822,27.00
123342,2403,818,27.00
123359,2405,817,27.00
123359,2405,819,27.00
123346,2407,819,27.00
123344,2410,821,27.00
123325,2402,821,27.00
123307,2405,823,27.00
123351,2403,823,27.00
123331,2403,826,27.00
123310,2404,819,27.00
123267,2407,821,27.00
123231,2403,817,27.00
123173,2400,816,27.00
123087,2403,818,27.00
123014,2407,819,27.00
122910,2405,822,27.00
122802,2402,819,27.00
122748,2411,823,27.00
122701,2409,825,27.00
122670,2410,825,27.00
122656,2406,827,27.00
122664,2407,823,27.00
122676,2407,825,27.00
122682,2410,822,27.00
122695,2407,823,27.00
122682,2410,821,27.00
122709,2411,822,27.00
122743,2403,825,27.00
122779,2404,822,27.00
122801,2400,821,27.00
122816,2401,822,27.00
122827,2413,822,27.00
122883,2410,823,27.00
122959,2403,825,27.00
123014,2407,822,27.00
123074,2411,826,27.00
123128,2407,823,27.00
123222,2407,825,27.00
123308,2405,825,27.00
123415,2404,824,27.00
123499,2401,823,27.00
123538,2400,825,27.00
123615,2399,825,27.00
123683,2400,822,27.00
123744,2403,822,27.00
123821,2399,816,27.00
123896,2396,825,27.00
123979,2401,821,27.00
124077,2402,821,27.00
124224,2403,825,27.00
124321,2399,822,27.00
124421,2401,819,27.00
124502,2401,823,27.00
124539,2399,823,27.00
124573,2396,823,27.00
124607,2396,823,27.00
124661,2401,822,27.00
124692,2399,819,27.00
124784,2399,821,27.00
124824,2402,823,27.00
124859,2402,822,27.00
124886,2400,823,27.00
124912,2410,827,27.00
124932,2399,824,27.00
124971,2405,822,27.00
124992,2399,825,27.00
125007,2400,825,27.00
125019,2404,827,27.00
125025,2396,821,27.00
125033,2400,823,27.00
125060,2399,823,27.00
125068,2398,821,27.00
125078,2395,826,27.00
125085,2420,822,27.00
125073,2400,822,27.00
125083,2395,819,27.00
125061,2402,820,27.00
125058,2400,822,27.00
125062,2398,819,27.00
125043,2400,823,27.00
125031,2401,821,27.00
125014,2399,823,27.00
124996,2400,826,27.00
124992,2394,821,27.00
124986,2393,821,27.00
124957,2398,819,27.00
124952,2395,818,27.00
124928,2399,822,27.00
124897,2400,832,27.00
124888,2399,821,27.00
124895,2398,822,27.00
124899,2400,822,27.00
124914,2407,821,27.00
124899,2401,821,27.00
124890,2401,826,27.00
124859,2399,826,27.00
124856,2398,823,27.00
124844,2399,824,27.00
124861,2395,826,27.00
124861,2401,830,27.00
124883,2398,827,27.00
124878,2405,823,27.00
124886,2399,827,27.00
124899,2394,822,27.00
124899,2401,825,27.00
124886,2394,823,27.00
124878,2394,820,27.00
124875,2397,819,27.00
124851,2384,818,27.00
124872,2395,825,27.00
124886,2403,821,27.00
124861,2402,823,27.00
124856,2399,823,27.00
124855,2396,823,27.00
124831,2389,825,27.00
124836,2399,822,27.00
124859,2397,826,27.00
124859,2394,822,27.00
124863,2398,819,27.00
124864,2395,819,27.00
124858,2397,819,27.00
124851,2398,820,27.00
124871,2399,822,27.00
124877,2397,823,27.00
124890,2398,822,27.00
124867,2397,822,27.00
124875,2398,821,27.00
124853,2398,826,27.00
124860,2401,826,27.00
124859,2395,822,27.00
124844,2401,825,27.00
124823,2401,822,27.00
124825,2403,825,27.00
124812,2395,823,27.00
124799,2398,821,27.00
124820,2399,821,27.00
124789,2401,822,27.00
124746,2399,825,27.00
124692,2399,825,27.00
124653,2394,822,27.00
124638,2396,823,27.00
124635,2395,823,27.00
124649,2403,826,27.00
124653,2397,825,27.00
124664,2398,822,27.00
124668,2401,822,27.00
124669,2395,821,27.00
124677,2400,826,27.00
124705,2387,822,27.00
124718,2416,823,27.00
124714,2390,824,27.00
124705,2395,819,27.00
124682,2395,820,27.00
124689,2391,822,27.00
124702,2389,820,27.00
124686,2395,823,27.00
124671,2391,826,27.00
124667,2395,824,27.00
124667,2395,823,27.00
124628,2397,823,27.00
124632,2389,828,27.00
124643,2395,822,27.00
124608,2394,823,27.00
124584,2391,820,27.00
124571,2391,821,27.00
124537,2391,818,27.00
124534,2397,832,27.00
124532,2395,825,27.00
124525,2394,823,27.00
124503,2405,822,27.00
124496,2399,823,27.00
124495,2387,826,27.00
124526,2400,826,27.00
124513,2399,819,27.00
124525,2393,823,27.00
124531,2394,829,27.00
124515,2395,825,27.00
124522,2397,822,27.00
124491,2399,821,27.00
124484,2400,822,27.00
124479,2398,823,27.00
124456,2390,823,27.00
124410,2391,822,27.00
124406,2390,822,27.00
124421,2389,821,27.00
124460,2398,823,27.00
124527,2397,822,27.00
124518,2396,823,27.00
124496,2391,822,27.00
124461,2390,824,27.00
124397,2394,823,27.00
124343,2396,825,27.00
124338,2391,825,27.00
124336,2393,822,27.00
124311,2389,823,27.00
124268,2389,826,27.00
124253,2398,821,27.00
124239,2389,817,27.00
124258,2388,819,27.00
124262,2389,818,27.00
124256,2398,823,27.00
124239,2390,828,27.00
124238,2390,822,27.00
124209,2386,825,27.00
124187,2391,821,27.00
124168,2395,823,27.00
124144,2395,821,27.00
124114,2391,825,27.00
124090,2391,823,27.00
124062,2391,826,27.00
124036,2391,823,27.00
124014,2389,820,27.00
123985,2391,821,27.00
123930,2384,819,27.00
123867,2387,826,27.00
123829,2386,821,27.00
123762,2388,821,27.00
123721,2387,821,27.00
123694,2387,822,27.00
123714,2388,826,27.00
123741,2389,825,27.00
123758,2384,821,27.00
123774,2389,823,27.00
123786,2386,829,27.00
123741,2387,826,27.00
123681,2387,822,27.00
123650,2386,826,27.00
123623,2387,825,27.00
123556,2387,823,27.00
123468,2390,823,27.00
123432,2391,823,27.00
123371,2389,826,27.00
123275,2386,823,27.00
123203,2385,822,27.00
123166,2384,823,27.00
123160,2384,825,27.00
123183,2388,823,27.00
123249,2390,825,27.00
123307,2379,822,27.00
123395,2391,825,27.00
123485,2386,823,27.00
123588,2386,823,27.00
123730,2390,825,27.00
123916,2394,822,27.00
124133,2387,821,27.00
124342,2390,823,27.00
124518,2391,826,27.00
124675,2388,825,27.00
124858,2385,823,27.00
125078,2384,826,27.00
125216,2389,825,27.00
125248,2385,822,27.00
125259,2392,818,27.00
125305,2391,822,27.00
125378,2387,820,27.00
125557,2390,817,27.00
125750,2396,817,27.00
125936,2397,831,27.00
126073,2400,822,27.00
126185,2398,822,27.00
126238,2404,826,27.00
126197,2402,822,27.00
126135,2401,819,27.00
126077,2401,822,27.00
125978,2397,825,27.00
125876,2399,822,27.00
125826,2400,821,27.00
125781,2405,826,27.00
125802,2401,823,27.00
125863,2404,821,27.00
125902,2406,816,27.00
125900,2405,816,27.00
125874,2405,817,27.00
125837,2407,822,27.00
125822,2407,818,27.00
125815,2407,822,27.00
125802,2415,822,27.00
125784,2405,823,27.00
125764,2403,823,27.00
125772,2399,823,27.00
125754,2400,825,27.00
125749,2399,822,27.00
125760,2402,820,27.00
125740,2404,825,27.00
125694,2403,826,27.00
125567,2400,823,27.00
125392,2401,823,27.00
125233,2401,823,27.00
125092,2405,822,27.00
124813,2403,821,27.00
124444,2405,823,27.00
123973,2403,825,27.00
123406,2405,823,27.00
123600,2406,823,27.00
123960,2404,822,27.00
123976,2407,825,27.00
123785,2403,822,27.00
123624,2407,826,27.00
123645,2407,823,27.00
123807,2407,823,27.00
124036,2409,824,27.00
124248,2405,825,27.00
124441,2411,828,27.00
124571,2404,825,27.00
124655,2405,823,27.00
124656,2407,823,27.00
124631,2407,827,27.00
124608,2400,823,27.00
124593,2401,822,27.00
124524,2407,826,27.00
124449,2403,821,27.00
124369,2406,821,27.00
124315,2405,822,27.00
124295,2403,822,27.00
124221,2409,825,27.00
124096,2413,822,27.00
123954,2406,821,27.00
123819,2414,823,27.00
123709,2409,825,27.00
123626,2406,826,27.00
123520,2404,823,27.00
123405,2406,823,27.00
123275,2401,823,27.00
123137,2407,825,27.00
122953,2403,821,27.00
122769,2403,822,27.00
122559,2403,819,27.00
122331,2401,821,27.00
122246,2403,819,27.00
122406,2403,818,27.00
122634,2404,819,27.00
122795,2405,818,27.00
122865,2403,817,27.00
122884,2402,819,27.00
122839,2401,816,27.00
122701,2403,818,27.00
122426,2405,817,27.00
122038,2403,818,27.00
121748,2409,822,27.00
121668,2404,825,27.00
121726,2405,828,27.00
121918,2405,822,27.00
122053,2405,825,27.00
122070,2405,820,27.00
121927,2403,821,27.00
121553,2407,824,27.00
120978,2407,821,27.00
120302,2410,823,27.00
119729,2405,828,27.00
119399,2405,823,27.00
119253,2400,826,27.00
119177,2398,825,27.00
118980,2403,822,27.00
118581,2395,821,27.00
118126,2399,824,27.00
117715,2401,819,27.00
117232,2395,819,27.00
116684,2399,821,27.00
116354,2401,819,27.00
116499,2401,818,27.00
117182,2402,832,27.00
118069,2400,820,27.00
118940,2399,822,27.00
119704,2405,823,27.00
120556,2405,824,27.00
121453,2405,826,27.00
122265,2403,823,27.00
122894,2402,823,27.00
123289,2402,823,27.00
123412,2399,820,27.00
123474,2399,826,27.00
123555,2398,826,27.00
123664,2413,821,27.00
123746,2409,822,27.00
123825,2400,821,27.00
123835,2406,823,27.00
123804,2402,823,27.00
123628,2406,822,27.00
123487,2399,819,27.00
123335,2400,819,27.00
123164,2402,817,27.00
122781,2406,819,27.00
122037,2403,821,27.00
120980,2399,821,27.00
119906,2403,822,27.00
119085,2399,823,27.00
118664,2401,821,27.00
118549,2398,821,27.00
118592,2399,823,27.00
118583,2397,825,27.00
118593,2398,826,27.00
118525,2397,822,27.00
118419,2396,819,27.00
118535,2394,823,27.00
118917,2396,821,27.00
119410,2397,822,27.00
119883,2401,822,27.00
122228,2384,822,27.00
122049,2390,821,27.00
121856,2387,823,27.00
121758,2390,824,27.00
121792,2390,825,27.00
121902,2387,825,27.00
122249,2388,822,27.00
122937,2384,822,27.00
123519,2382,825,27.00
123884,2378,826,27.00
124103,2371,826,27.00
124228,2373,821,27.00
124308,2379,821,27.00
124352,2370,823,27.00
124361,2373,825,27.00
124322,2373,821,27.00
124284,2373,822,27.00
124255,2374,821,27.00
124214,2374,820,27.00
124197,2377,823,27.00
124198,2378,822,27.00
124189,2375,822,27.00
124197,2371,825,27.00
124195,2374,823,27.00
124171,2377,822,27.00
124158,2375,822,27.00
124115,2377,824,27.00
124014,2379,823,27.00
123913,2374,822,27.00
123854,2381,826,27.00
123841,2374,822,27.00
123840,2373,825,27.00
123849,2375,822,27.00
123878,2370,823,27.00
123891,2373,823,27.00
123896,2370,826,27.00
123913,2367,823,27.00
123883,2370,823,27.00
123880,2370,818,27.00
123851,2371,819,27.00
123796,2370,821,27.00
123710,2372,817,27.00
123643,2368,818,27.00
123561,2371,819,27.00
123458,2374,822,27.00
123391,2368,823,27.00
123275,2375,822,27.00
123152,2379,822,27.00
123065,2370,822,27.00
123002,2355,825,27.00
122982,2371,825,27.00
123012,2367,821,27.00
123100,2368,820,27.00
123160,2368,826,27.00
123164,2368,827,27.00
123155,2368,822,27.00
123137,2368,822,27.00
123151,2368,822,27.00
123168,2368,818,27.00
123194,2369,817,27.00
123176,2368,821,27.00
123144,2367,820,27.00
123122,2368,817,27.00
123146,2365,822,27.00
123174,2368,821,27.00
123194,2368,823,27.00
123222,2367,823,27.00
123235,2363,823,27.00
123248,2365,823,27.00
123244,2363,826,27.00
123258,2363,821,27.00
123263,2359,819,27.00
123239,2363,817,27.00
123211,2361,819,27.00
123199,2364,819,27.00
123172,2362,818,27.00
123170,2362,820,27.00
123171,2353,823,27.00
123174,2367,825,27.00
123156,2366,822,27.00
123137,2368,821,27.00
123115,2366,825,27.00
123125,2362,821,27.00
123126,2368,823,27.00
123112,2364,821,27.00
123124,2364,822,27.00
123115,2359,826,27.00
123126,2365,823,27.00
123127,2363,826,27.00
123141,2362,825,27.00
123131,2362,823,27.00
123131,2365,823,27.00
123120,2368,825,27.00
123127,2368,823,27.00
123098,2368,822,27.00
123039,2358,818,27.00
122977,2362,820,27.00
122918,2365,822,27.00
122893,2361,821,27.00
122883,2366,821,27.00
122866,2368,819,27.00
122861,2362,822,27.00
122888,2362,819,27.00
122911,2374,822,27.00
122939,2365,823,27.00
122946,2367,822,27.00
122968,2367,822,27.00
122988,2366,823,27.00
123047,2368,827,27.00
123108,2368,823,27.00
123153,2368,823,27.00
123175,2368,823,27.00
123205,2375,825,27.00
123202,2368,823,27.00
123166,2369,822,27.00
123113,2371,822,27.00
123034,2362,826,27.00
122952,2368,823,27.00
122890,2368,825,27.00
122873,2365,823,27.00
122966,2365,825,27.00
123203,2362,825,27.00
123352,2365,822,27.00
123381,2362,822,27.00
123398,2358,823,27.00
123439,2361,823,27.00
123480,2363,823,27.00
123498,2359,823,27.00
123513,2364,823,27.00
123536,2361,826,27.00
123529,2363,825,27.00
123513,2357,823,27.00
123493,2362,823,27.00
123485,2365,825,27.00
123476,2362,829,27.00
123492,2360,824,27.00
123501,2362,824,27.00
123529,2359,823,27.00
123551,2359,822,27.00
123540,2352,826,27.00
123534,2359,822,27.00
123526,2365,825,27.00
123486,2358,823,27.00
123393,2362,823,27.00
123302,2362,822,27.00
123231,2362,822,27.00
123147,2359,821,27.00
123061,2367,821,27.00
122921,2357,822,27.00
122834,2359,826,27.00
122786,2359,821,27.00
122756,2359,823,27.00
122706,2357,823,27.00
122691,2359,825,27.00
122692,2362,822,27.00
122658,2363,825,27.00
122611,2361,823,27.00
122587,2365,821,27.00
122567,2358,820,27.00
122584,2358,821,27.00
122567,2357,822,27.00
122549,2358,826,27.00
122532,2356,826,27.00
122520,2362,823,27.00
122509,2361,823,27.00
122493,2363,825,27.00
122525,2361,822,27.00
122533,2362,823,27.00
122529,2363,825,27.00
122487,2354,827,27.00
122458,2356,822,27.00
122392,2359,830,27.00
122337,2359,829,27.00
122314,2364,827,27.00
122254,2358,825,27.00
122202,2359,822,27.00
122182,2360,823,27.00
122160,2358,821,27.00
122124,2355,821,27.00
122095,2356,823,27.00
122077,2362,826,27.00
122086,2359,825,27.00
122095,2363,823,27.00
122120,2367,825,27.00
122109,2364,826,27.00
122104,2358,827,27.00
122098,2363,827,27.00
122084,2359,828,27.00
122062,2359,825,27.00
122067,2357,822,27.00
122044,2357,822,27.00
122076,2352,823,27.00
122086,2357,822,27.00
122083,2372,823,27.00
122050,2353,824,27.00
122043,2354,821,27.00
122027,2361,821,27.00
122014,2355,822,27.00
122041,2357,823,27.00
122076,2357,823,27.00
122093,2358,821,27.00
122094,2357,823,27.00
122091,2361,822,27.00
122096,2359,825,27.00
122089,2359,821,27.00
122090,2363,823,27.00
122079,2358,823,27.00
122070,2364,825,27.00
122064,2353,822,27.00
122039,2354,823,27.00
122009,2352,827,27.00
121976,2356,823,27.00
121949,2353,826,27.00
121929,2354,822,27.00
121896,2361,825,27.00
121890,2358,825,27.00
121880,2353,821,27.00
121890,2359,821,27.00
121890,2359,821,27.00
121867,2357,819,27.00
121850,2357,819,27.00
121828,2354,818,27.00
121810,2354,817,27.00
121786,2358,825,27.00
121789,2361,821,27.00
121733,2359,823,27.00
121695,2361,826,27.00
121662,2362,822,27.00
121644,2362,824,27.00
121638,2361,823,27.00
121631,2355,825,27.00
121644,2355,823,27.00
121626,2352,826,27.00
121599,2357,827,27.00
121591,2361,821,27.00
121617,2359,821,27.00
121653,2359,822,27.00
121661,2359,817,27.00
121654,2357,817,27.00
121647,2357,823,27.00
121665,2358,821,27.00
121609,2363,823,27.00
121559,2362,818,27.00
121546,2359,818,27.00
121583,2364,821,27.00
121638,2359,821,27.00
121666,2362,823,27.00
121677,2361,821,27.00
121676,2357,826,27.00
121741,2353,823,27.00
121731,2353,824,27.00
121714,2359,818,27.00
121717,2378,825,27.00
121737,2357,823,27.00
121749,2354,821,27.00
121740,2358,828,27.00
121751,2357,819,27.00
121770,2358,817,27.00
121775,2355,820,27.00
121793,2355,819,27.00
121797,2354,819,27.00
121814,2354,818,27.00
121815,2359,820,27.00
121797,2363,825,27.00
121760,2363,822,27.00
121703,2361,823,27.00
121674,2358,826,27.00
121668,2359,822,27.00
121712,2362,823,27.00
121727,2358,825,27.00
121673,2363,822,27.00
121622,2359,823,27.00
121640,2359,825,27.00
121688,2358,822,27.00
121732,2355,825,27.00
121800,2359,821,27.00
121838,2357,821,27.00
121902,2358,821,27.00
121989,2358,819,27.00
122085,2359,816,27.00
122138,2362,817,27.00
122157,2363,818,27.00
122153,2370,820,27.00
122164,2366,821,27.00
122177,2366,819,27.00
122196,2366,823,27.00
122215,2367,821,27.00
122290,2368,823,27.00
122335,2369,823,27.00
122378,2366,822,27.00
122376,2368,821,27.00
122368,2368,823,27.00
122336,2366,823,27.00
122298,2368,822,27.00
122277,2368,822,27.00
122221,2362,822,27.00
122187,2367,826,27.00
122226,2367,823,27.00
122258,2368,825,27.00
122256,2368,822,27.00
122217,2364,824,27.00
122137,2368,823,27.00
122013,2365,818,27.00
121873,2368,819,27.00
121779,2366,820,27.00
121717,2366,818,27.00
121684,2365,818,27.00
121602,2362,821,27.00
121469,2359,821,27.00
121356,2365,819,27.00
121297,2359,819,27.00
121258,2363,820,27.00
121264,2368,818,27.00
121268,2361,822,27.00
121252,2363,823,27.00
121211,2358,822,27.00
121175,2358,821,27.00
121150,2363,821,27.00
121119,2362,819,27.00
121106,2359,822,27.00
121095,2359,823,27.00
121086,2364,823,27.00
121078,2363,823,27.00
121067,2363,825,27.00
121044,2359,826,27.00
121070,2358,822,27.00
121078,2356,824,27.00
121071,2353,823,27.00
121092,2359,821,27.00
121099,2362,821,27.00
121099,2359,817,27.00
121075,2358,820,27.00
121060,2353,819,27.00
121076,2359,821,27.00
121086,2359,822,27.00
121097,2362,823,27.00
121087,2354,821,27.00
121091,2357,823,27.00
121123,2361,821,27.00
121172,2362,822,27.00
121187,2359,822,27.00
121162,2362,821,27.00
121133,2363,822,27.00
121086,2364,823,27.00
121074,2363,823,27.00
121040,2354,822,27.00
121000,2364,823,27.00
120983,2363,823,27.00
121045,2363,825,27.00
121095,2362,822,27.00
121110,2362,823,27.00
121149,2363,823,27.00
121176,2358,822,27.00
121168,2365,823,27.00
121142,2362,821,27.00
121147,2361,821,27.00
121157,2362,819,27.00
121235,2359,822,27.00
121336,2361,819,27.00
121408,2360,818,27.00
121429,2359,819,27.00
121422,2363,819,27.00
121416,2363,831,27.00
121431,2363,827,27.00
121414,2364,819,27.00
121393,2363,820,27.00
121348,2359,820,27.00
121279,2357,818,27.00
121232,2358,821,27.00
121151,2363,826,27.00
121116,2359,824,27.00
121168,2356,825,27.00
121403,2357,823,27.00
121684,2355,823,27.00
121956,2362,824,27.00
122184,2357,823,27.00
122359,2352,819,27.00
122524,2352,825,27.00
122564,2352,821,27.00
122589,2352,821,27.00
122601,2352,819,27.00
122602,2358,821,27.00
122645,2351,819,27.00
122737,2353,819,27.00
122824,2354,820,27.00
122864,2352,822,27.00
122863,2358,821,27.00
122822,2362,821,27.00
122730,2359,821,27.00
122652,2357,820,27.00
122587,2366,822,27.00
122576,2363,820,27.00
122597,2364,821,27.00
122676,2359,827,27.00
122763,2359,827,27.00
122822,2361,823,27.00
122864,2364,823,27.00
122831,2358,826,27.00
122747,2367,823,27.00
122638,2362,826,27.00
122534,2365,827,27.00
122457,2359,823,27.00
122455,2363,821,27.00
122460,2365,825,27.00
122392,2361,821,27.00
122304,2365,823,27.00
122264,2363,825,27.00
122288,2361,822,27.00
122336,2362,822,27.00
122348,2361,824,27.00
122355,2353,830,27.00
122328,2355,823,27.00
122285,2361,826,27.00
122238,2355,823,27.00
122145,2357,826,27.00
122030,2352,822,27.00
121888,2358,823,27.00
121758,2357,823,27.00
121634,2357,819,27.00
121563,2361,826,27.00
121495,2359,826,27.00
121486,2359,823,27.00
121485,2358,823,27.00
121499,2353,823,27.00
121495,2352,823,27.00
121538,2354,822,27.00
121483,2358,825,27.00
121321,2362,829,27.00
121065,2363,823,27.00
120667,2363,823,27.00
120226,2363,827,27.00
119919,2367,823,27.00
119847,2371,824,27.00
119811,2375,823,27.00
119830,2379,822,27.00
119843,2382,823,27.00
119825,2382,828,27.00
119778,2381,822,27.00
119702,2384,825,27.00
119661,2385,823,27.00
119643,2389,822,27.00
119610,2387,825,27.00
119599,2384,823,27.00
119622,2384,823,27.00
119587,2384,821,27.00
119394,2384,819,27.00
119130,2385,823,27.00
119022,2383,821,27.00
119114,2385,817,27.00
119032,2380,819,27.00
118911,2384,819,27.00
118822,2384,819,27.00
118682,2391,817,27.00
118737,2387,823,27.00
118673,2386,826,27.00
118570,2390,822,27.00
118454,2389,823,27.00
118472,2395,823,27.00
118364,2389,823,27.00
118216,2387,823,27.00
118274,2387,822,27.00
118411,2391,821,27.00
118342,2389,825,27.00
118364,2390,821,27.00
118461,2385,823,27.00
118345,2389,819,27.00
118270,2394,819,27.00
118139,2391,819,27.00
117803,2393,819,27.00
117711,2396,820,27.00
117817,2390,819,27.00
117809,2399,830,27.00
117707,2396,818,27.00
117381,2394,821,27.00
117027,2395,820,27.00
116921,2400,821,27.00
116952,2395,822,27.00
117035,2394,826,27.00
117088,2391,829,27.00
117112,2391,823,27.00
117109,2393,823,27.00
116981,2389,823,27.00
116849,2389,821,27.00
116757,2393,823,27.00
116688,2386,827,27.00
116614,2387,821,27.00
116407,2391,819,27.00
116286,2388,822,27.00
116272,2396,820,27.00
116175,2391,818,27.00
115990,2395,821,27.00
115756,2393,818,27.00
115567,2393,819,27.00
115305,2391,818,27.00
115086,2391,818,27.00
114909,2391,827,27.00
114755,2399,817,27.00
114598,2393,821,27.00
114401,2398,819,27.00
114263,2395,819,27.00
114169,2398,823,27.00
114159,2398,821,27.00
114179,2393,821,27.00
114238,2399,823,27.00
114284,2395,822,27.00
114300,2394,823,27.00
114469,2391,822,27.00
114689,2389,825,27.00
114951,2389,819,27.00
115156,2385,819,27.00
115174,2394,823,27.00
115137,2398,823,27.00
115029,2394,823,27.00
114918,2394,821,27.00
114885,2395,819,27.00
114904,2397,818,27.00
114935,2394,819,27.00
114964,2391,817,27.00
115039,2390,819,27.00
115153,2401,817,27.00
115232,2395,819,27.00
115207,2402,822,27.00
115066,2395,821,27.00
114892,2398,819,27.00
114780,2397,822,27.00
114772,2397,822,27.00
114746,2397,822,27.00
114741,2399,823,27.00
114755,2401,824,27.00
114801,2394,823,27.00
114931,2388,824,27.00
114988,2390,826,27.00
115013,2394,826,27.00
115077,2403,822,27.00
115206,2395,819,27.00
115333,2395,818,27.00
115401,2394,821,27.00
115473,2395,817,27.00
115570,2389,822,27.00
115671,2402,821,27.00
115758,2397,823,27.00
115792,2395,819,27.00
115814,2394,822,27.00
115815,2397,823,27.00
115812,2399,823,27.00
115765,2400,825,27.00
115688,2394,825,27.00
115654,2395,823,27.00
115662,2399,826,27.00
115643,2393,821,27.00
115634,2395,823,27.00
115655,2397,825,27.00
115650,2399,827,27.00
115621,2399,823,27.00
115598,2391,823,27.00
115649,2395,823,27.00
115658,2390,822,27.00
115590,2394,821,27.00
115513,2397,819,27.00
115470,2391,822,27.00
115438,2391,821,27.00
115439,2399,822,27.00
115435,2390,819,27.00
115468,2396,823,27.00
115491,2399,822,27.00
115465,2396,821,27.00
115421,2393,821,27.00
115410,2394,820,27.00
115431,2390,820,27.00
115457,2389,818,27.00
115499,2391,819,27.00
115488,2390,817,27.00
115492,2395,818,27.00
115483,2393,817,27.00
114087,2394,828,27.00
114036,2397,825,27.00
114016,2399,822,27.00
113946,2397,823,27.00
113881,2394,823,27.00
113841,2395,823,27.00
113863,2395,825,27.00
113816,2395,823,27.00
113790,2393,825,27.00
113764,2393,821,27.00
113654,2389,821,27.00
113487,2393,821,27.00
113314,2388,816,27.00
113191,2391,827,27.00
113126,2396,818,27.00
113076,2391,821,27.00
113123,2386,827,27.00
113229,2393,821,27.00
113288,2394,822,27.00
113326,2391,821,27.00
113260,2390,826,27.00
113158,2395,822,27.00
113031,2394,822,27.00
112945,2390,823,27.00
112866,2391,825,27.00
112812,2391,823,27.00
112722,2390,823,27.00
112686,2391,823,27.00
112736,2395,823,27.00
112859,2389,822,27.00
112955,2390,821,27.00
113055,2393,823,27.00
113271,2395,823,27.00
113424,2391,826,27.00
113506,2387,822,27.00
113498,2389,823,27.00
113411,2395,822,27.00
113301,2390,821,27.00
113157,2397,823,27.00
112997,2390,821,27.00
112932,2394,818,27.00
112921,2390,819,27.00
112961,2395,819,27.00
113053,2391,820,27.00
113147,2391,819,27.00
113218,2391,819,27.00
113257,2397,818,27.00
113328,2394,824,27.00
113436,2396,822,27.00
113488,2391,820,27.00
113510,2391,825,27.00
113576,2386,822,27.00
113616,2397,822,27.00
113661,2384,825,27.00
113648,2393,827,27.00
113653,2389,822,27.00
113676,2391,819,27.00
113670,2391,822,27.00
113697,2393,826,27.00
113736,2387,819,27.00
113830,2388,820,27.00
113833,2386,820,27.00
113857,2393,823,27.00
113877,2398,820,27.00
113906,2389,823,27.00
113906,2393,822,27.00
113909,2394,825,27.00
113883,2389,825,27.00
113898,2391,823,27.00
113901,2395,823,27.00
113895,2388,821,27.00
113790,2393,825,27.00
113774,2397,825,27.00
113799,2394,822,27.00
113816,2393,825,27.00
113797,2395,826,27.00
113827,2390,823,27.00
113846,2391,822,27.00
113855,2391,822,27.00
113889,2395,825,27.00
113920,2393,825,27.00
113966,2398,824,27.00
114006,2389,826,27.00
114009,2389,825,27.00
113981,2393,822,27.00
113998,2393,824,27.00
113989,2397,823,27.00
113928,2390,826,27.00
113871,2393,821,27.00
113806,2391,822,27.00
113735,2395,823,27.00
113709,2390,825,27.00
113682,2387,823,27.00
113693,2390,822,27.00
113687,2394,823,27.00
113747,2391,825,27.00
113817,2394,826,27.00
113827,2397,823,27.00
113871,2391,831,27.00
113957,2395,822,27.00
113993,2391,821,27.00
113932,2395,827,27.00
113898,2387,823,27.00
113858,2388,823,27.00
113878,2386,823,27.00
113864,2391,819,27.00
113876,2403,824,27.00
113894,2390,822,27.00
113871,2391,823,27.00
113849,2391,824,27.00
113837,2394,823,27.00
113847,2395,823,27.00
113784,2395,827,27.00
113728,2394,822,27.00
113740,2394,824,27.00
113751,2393,823,27.00
113761,2395,827,27.00
113777,2402,825,27.00
113799,2398,825,27.00
113835,2391,826,27.00
113900,2394,823,27.00
114042,2394,824,27.00
114154,2390,823,27.00
114185,2387,826,27.00
114072,2389,823,27.00
113843,2391,825,27.00
113461,2390,822,27.00
113094,2397,823,27.00
112872,2390,824,27.00
112840,2389,826,27.00
112965,2394,823,27.00
113226,2395,821,27.00
113497,2391,821,27.00
113723,2394,817,27.00
113944,2392,818,27.00
114056,2393,819,27.00
114124,2395,823,27.00
114136,2397,822,27.00
114156,2395,821,27.00
114212,2395,823,27.00
114271,2397,822,27.00
114326,2397,825,27.00
114424,2397,827,27.00
114533,2398,824,27.00
114673,2399,823,27.00
114816,2393,822,27.00
114938,2394,821,27.00
115057,2395,822,27.00
115138,2391,819,27.00
115251,2385,822,27.00
115424,2389,826,27.00
115609,2391,826,27.00
115703,2389,821,27.00
115738,2386,823,27.00
115824,2391,823,27.00
115916,2390,823,27.00
115917,2391,821,27.00
115813,2391,830,27.00
115597,2390,823,27.00
115355,2395,820,27.00
115213,2396,821,27.00
115121,2384,825,27.00
115104,2395,823,27.00
115074,2395,822,27.00
115214,2391,825,27.00
115486,2393,827,27.00
115837,2398,823,27.00
116135,2395,825,27.00
116367,2397,823,27.00
116518,2396,822,27.00
116600,2390,823,27.00
116654,2389,823,27.00
116651,2394,826,27.00
116525,2394,825,27.00
116298,2387,823,27.00
116251,2390,823,27.00
116321,2385,823,27.00
116422,2385,825,27.00
116359,2387,821,27.00
116282,2383,822,27.00
116228,2385,823,27.00
116170,2384,822,27.00
116165,2384,823,27.00
116054,2384,822,27.00
115983,2386,819,27.00
115873,2385,821,27.00
115690,2384,818,27.00
115459,2372,822,27.00
115335,2385,825,27.00
115288,2384,828,27.00
115314,2384,826,27.00
115299,2385,826,27.00
115277,2384,825,27.00
115228,2395,823,27.00
115151,2387,819,27.00
115213,2384,823,27.00
115387,2390,823,27.00
115583,2393,824,27.00
115721,2374,829,27.00
115866,2386,824,27.00
116073,2394,823,27.00
116288,2384,823,27.00
116489,2385,826,27.00
116648,2384,823,27.00
116796,2382,824,27.00
116960,2384,823,27.00
117066,2384,827,27.00
117139,2384,825,27.00
117201,2384,827,27.00
117278,2384,822,27.00
117342,2384,827,27.00
117415,2384,822,27.00
117453,2384,821,27.00
117576,2391,822,27.00
117678,2386,822,27.00
117660,2385,822,27.00
117650,2384,823,27.00
117677,2384,823,27.00
117715,2384,822,27.00
117717,2385,826,27.00
117677,2384,826,27.00
117661,2385,826,27.00
117654,2386,822,27.00
117625,2385,825,27.00
117564,2386,822,27.00
117500,2388,823,27.00
117493,2386,825,27.00
117449,2385,820,27.00
117353,2387,821,27.00
117246,2390,827,27.00
117124,2384,825,27.00
116940,2384,825,27.00
116816,2388,823,27.00
116747,2387,821,27.00
116684,2387,823,27.00
116651,2387,825,27.00
116667,2387,823,27.00
116760,2384,823,27.00
116879,2386,821,27.00
117066,2387,827,27.00
117162,2385,823,27.00
117209,2390,827,27.00
117197,2391,826,27.00
117124,2389,826,27.00
116944,2391,819,27.00
116776,2384,821,27.00
116709,2393,823,27.00
116713,2390,823,27.00
116739,2393,823,27.00
116795,2394,824,27.00
116827,2391,823,27.00
116779,2390,826,27.00
116661,2387,827,27.00
116602,2391,822,27.00
116581,2390,822,27.00
116595,2391,823,27.00
116642,2391,823,27.00
116731,2391,823,27.00
116854,2392,821,27.00
116958,2391,822,27.00
117031,2389,823,27.00
117058,2391,825,27.00
117110,2386,821,27.00
117128,2383,822,27.00
117161,2387,823,27.00
117213,2393,823,27.00
117215,2391,826,27.00
117186,2391,823,27.00
117079,2391,821,27.00
117018,2386,825,27.00
117011,2390,825,27.00
116993,2385,824,27.00
116955,2390,823,27.00
116942,2386,823,27.00
116956,2388,824,27.00
116965,2392,822,27.00
116884,2391,826,27.00
116802,2390,821,27.00
116726,2391,821,27.00
116654,2391,823,27.00
116577,2387,821,27.00
116549,2389,824,27.00
116478,2387,822,27.00
116374,2384,822,27.00
116324,2386,823,27.00
116359,2389,822,27.00
116416,2387,827,27.00
116444,2387,829,27.00
116422,2387,823,27.00
116383,2392,822,27.00
116424,2395,825,27.00
116487,2390,826,27.00
116516,2384,821,27.00
116534,2398,825,27.00
116533,2397,825,27.00
116566,2399,826,27.00
116610,2391,825,27.00
116574,2391,818,27.00
116527,2395,822,27.00
116485,2390,825,27.00
116428,2390,826,27.00
116419,2407,823,27.00
116415,2389,821,27.00
116413,2391,817,27.00
116379,2399,821,27.00
116314,2395,819,27.00
116242,2391,826,27.00
116194,2389,823,27.00
116154,2393,823,27.00
116154,2394,821,27.00
116155,2393,822,27.00
116153,2393,821,27.00
116103,2395,826,27.00
116060,2393,823,27.00
116019,2396,825,27.00
115994,2390,823,27.00
116020,2390,822,27.00
115990,2384,820,27.00
115977,2390,818,27.00
115964,2390,816,27.00
116003,2390,818,27.00
116020,2389,825,27.00
116027,2397,819,27.00
116056,2393,822,27.00
116081,2391,821,27.00
116086,2395,821,27.00
116096,2393,822,27.00
116108,2391,822,27.00
116107,2395,826,27.00
116084,2391,822,27.00
116082,2395,822,27.00
116044,2387,823,27.00
116030,2395,823,27.00
116059,2390,825,27.00
116076,2394,822,27.00
116111,2393,823,27.00
116104,2396,826,27.00
116038,2393,823,27.00
115935,2391,821,27.00
115882,2387,826,27.00
115830,2396,822,27.00
115830,2395,823,27.00
115859,2393,823,27.00
115824,2384,821,27.00
115802,2391,825,27.00
115801,2394,823,27.00
115881,2395,822,27.00
115929,2391,826,27.00
115944,2391,825,27.00
116000,2391,823,27.00
116094,2391,823,27.00
116124,2399,826,27.00
116207,2394,821,27.00
116290,2390,821,27.00
116428,2393,822,27.00
116509,2391,822,27.00
116588,2391,823,27.00
116664,2396,822,27.00
116745,2398,825,27.00
116808,2394,827,27.00
116869,2398,823,27.00
116933,2387,823,27.00
116977,2389,821,27.00
116985,2393,824,27.00
117000,2388,823,27.00
117034,2388,819,27.00
117045,2389,819,27.00
117022,2391,822,27.00
116994,2391,820,27.00
116966,2393,827,27.00
116958,2391,827,27.00
116958,2397,827,27.00
116939,2398,823,27.00
116962,2390,823,27.00
117015,2391,823,27.00
117042,2391,823,27.00
117053,2390,822,27.00
117078,2391,823,27.00
117080,2387,819,27.00
117060,2386,822,27.00
117071,2389,819,27.00
117038,2391,818,27.00
116977,2387,820,27.00
116873,2391,819,27.00
116702,2391,819,27.00
116409,2393,823,27.00
116120,2389,822,27.00
115847,2394,822,27.00
115539,2395,822,27.00
115199,2396,823,27.00
114774,2394,824,27.00
114367,2395,825,27.00
113969,2396,822,27.00
113592,2384,821,27.00
113355,2401,822,27.00
113205,2391,825,27.00
112997,2390,825,27.00
112844,2389,819,27.00
112702,2387,818,27.00
112648,2391,818,27.00
112614,2387,817,27.00
112368,2390,817,27.00
112136,2388,819,27.00
111978,2397,820,27.00
111893,2399,820,27.00
111835,2394,821,27.00
111771,2395,819,27.00
111702,2399,825,27.00
111591,2398,821,27.00
111355,2399,821,27.00
111094,2397,822,27.00
110903,2391,822,27.00
110831,2389,822,27.00
110721,2390,824,27.00
110597,2394,822,27.00
110828,2395,826,27.00
110782,2391,823,27.00
110740,2399,823,27.00
110704,2389,823,27.00
110762,2393,822,27.00
110815,2387,826,27.00
110920,2386,823,27.00
111037,2389,823,27.00
111150,2388,821,27.00
111242,2383,821,27.00
111336,2387,819,27.00
111524,2388,824,27.00
111722,2390,819,27.00
111949,2389,817,27.00
112146,2389,820,27.00
112248,2391,833,27.00
112299,2390,826,27.00
112244,2389,819,27.00
112160,2390,817,27.00
112201,2393,822,27.00
112209,2391,826,27.00
112258,2396,822,27.00
112389,2389,820,27.00
112481,2390,821,27.00
112569,2390,822,27.00
112627,2387,823,27.00
112709,2391,824,27.00
112761,2393,824,27.00
112738,2393,822,27.00
112726,2386,819,27.00
112561,2390,820,27.00
112262,2393,819,27.00
111901,2389,818,27.00
111726,2392,820,27.00
111689,2396,818,27.00
111793,2400,825,27.00
111956,2394,825,27.00
112046,2395,823,27.00
111991,2388,825,27.00
112005,2393,823,27.00
112115,2398,822,27.00
112298,2389,823,27.00
112558,2391,823,27.00
112765,2394,825,27.00
112784,2391,825,27.00
112722,2393,825,27.00
112647,2396,823,27.00
112597,2395,819,27.00
112619,2396,827,27.00
112581,2395,825,27.00
112543,2393,827,27.00
112529,2397,825,27.00
112439,2391,823,27.00
112296,2385,823,27.00
112157,2395,823,27.00
112074,2394,823,27.00
111940,2394,825,27.00
111781,2394,821,27.00
111640,2395,823,27.00
111515,2395,825,27.00
111408,2394,825,27.00
111223,2395,826,27.00
111030,2391,826,27.00
110874,2393,826,27.00
110712,2395,822,27.00
110564,2393,823,27.00
110688,2391,823,27.00
110899,2393,822,27.00
111204,2394,823,27.00
111568,2395,823,27.00
111586,2398,826,27.00
111274,2396,826,27.00
111023,2395,821,27.00
111040,2390,825,27.00
111175,2395,825,27.00
111221,2390,822,27.00
110995,2390,826,27.00
110441,2385,821,27.00
109432,2387,825,27.00
108501,2389,823,27.00
108566,2385,821,27.00
109033,2390,826,27.00
109279,2389,823,27.00
109603,2386,826,27.00
110055,2385,822,27.00
110555,2387,825,27.00
110891,2384,826,27.00
111040,2389,823,27.00
111118,2389,825,27.00
111210,2390,826,27.00
111399,2385,827,27.00
111682,2389,821,27.00
111967,2382,821,27.00
112194,2416,825,27.00
112295,2387,826,27.00
112302,2393,819,27.00
112292,2387,820,27.00
112238,2389,818,27.00
112135,2386,818,27.00
112006,2390,819,27.00
112052,2388,821,27.00
112214,2391,823,27.00
112394,2393,823,27.00
112507,2390,822,27.00
112530,2393,821,27.00
112533,2395,827,27.00
112542,2384,827,27.00
112589,2389,822,27.00
112566,2388,818,27.00
112553,2389,818,27.00
112511,2387,818,27.00
112508,2391,818,27.00
112471,2390,821,27.00
112280,2391,822,27.00
112065,2391,821,27.00
111976,2397,822,27.00
111957,2406,826,27.00
111961,2393,822,27.00
112096,2397,823,27.00
112336,2396,825,27.00
112506,2391,820,27.00
112593,2394,822,27.00
112664,2384,823,27.00
112539,2393,822,27.00
112303,2399,825,27.00
112075,2396,823,27.00
111894,2396,823,27.00
111886,2394,823,27.00
111943,2390,825,27.00
112038,2385,822,27.00
112175,2384,826,27.00
112278,2387,821,27.00
112321,2392,825,27.00
112273,2389,821,27.00
112166,2391,822,27.00
112073,2398,827,27.00
111999,2398,825,27.00
111930,2391,822,27.00
111787,2390,824,27.00
111587,2394,822,27.00
111376,2389,821,27.00
111212,2389,823,27.00
111117,2389,824,27.00
111002,2417,822,27.00
110888,2389,821,27.00
110894,2389,818,27.00
110980,2390,816,27.00
110931,2395,822,27.00
110713,2393,832,27.00
110475,2390,818,27.00
110288,2395,820,27.00
110368,2389,820,27.00
110483,2393,822,27.00
110357,2395,820,27.00
110269,2394,821,27.00
110266,2388,822,27.00
110286,2390,826,27.00
110314,2394,823,27.00
110281,2387,821,27.00
111419,2388,821,27.00
111234,2391,821,27.00
111024,2386,826,27.00
110734,2392,822,27.00
110375,2387,819,27.00
109972,2390,818,27.00
109550,2386,819,27.00
109322,2385,821,27.00
109309,2387,821,27.00
109359,2385,821,27.00
109351,2384,823,27.00
109279,2385,824,27.00
109212,2384,823,27.00
109163,2384,825,27.00
109145,2384,821,27.00
109093,2382,823,27.00
109022,2383,823,27.00
108982,2385,823,27.00
109012,2382,823,27.00
109097,2381,821,27.00
109198,2383,823,27.00
109281,2383,825,27.00
109415,2383,822,27.00
109519,2390,821,27.00
109593,2383,823,27.00
109580,2384,826,27.00
109570,2383,827,27.00
109653,2384,823,27.00
109742,2386,819,27.00
109768,2386,822,27.00
109749,2389,823,27.00
109766,2384,823,27.00
109676,2384,823,27.00
109550,2383,822,27.00
109384,2386,826,27.00
109247,2387,825,27.00
109124,2383,823,27.00
108993,2387,823,27.00
108920,2388,821,27.00
108892,2391,826,27.00
108921,2385,824,27.00
108969,2387,825,27.00
109040,2390,825,27.00
109198,2384,826,27.00
109461,2384,827,27.00
109669,2386,825,27.00
109828,2384,823,27.00
109976,2381,822,27.00
110165,2383,822,27.00
110603,2416,821,27.00
111257,2384,822,27.00
111690,2387,823,27.00
111615,2384,819,27.00
111429,2386,822,27.00
111243,2388,827,27.00
110879,2385,821,27.00
110446,2387,825,27.00
110232,2391,827,27.00
110085,2387,826,27.00
109929,2389,825,27.00
109816,2393,826,27.00
109767,2384,825,27.00
109706,2387,824,27.00
109621,2386,823,27.00
109612,2385,825,27.00
109592,2387,821,27.00
109557,2385,824,27.00
109442,2384,819,27.00
109242,2390,822,27.00
109055,2384,820,27.00
108992,2387,821,27.00
108808,2390,821,27.00
108586,2390,821,27.00
108350,2391,821,27.00
108140,2390,824,27.00
108032,2384,822,27.00
108048,2386,823,27.00
108130,2385,821,27.00
108168,2386,823,27.00
108191,2384,821,27.00
108210,2414,823,27.00
108154,2384,823,27.00
108095,2385,819,27.00
108062,2382,820,27.00
107995,2384,820,27.00
107895,2377,819,27.00
107807,2381,819,27.00
107768,2384,832,27.00
107770,2384,819,27.00
107757,2384,819,27.00
107737,2386,821,27.00
107670,2384,823,27.00
107633,2383,822,27.00
107630,2384,823,27.00
107615,2384,823,27.00
107587,2382,823,27.00
107564,2383,826,27.00
107507,2384,822,27.00
107403,2379,820,27.00
107265,2383,823,27.00
107179,2383,824,27.00
107044,2384,826,27.00
106945,2383,822,27.00
106836,2385,822,27.00
106661,2384,826,27.00
106535,2385,826,27.00
106413,2384,821,27.00
106193,2384,822,27.00
106001,2384,826,27.00
105880,2384,823,27.00
105737,2387,822,27.00
105591,2383,825,27.00
105418,2385,825,27.00
105282,2384,822,27.00
105157,2384,826,27.00
105014,2383,823,27.00
104833,2384,823,27.00
104734,2384,821,27.00
104687,2379,825,27.00
104655,2383,821,27.00
104638,2379,827,27.00
104624,2373,823,27.00
104655,2371,823,27.00
104680,2368,823,27.00
104684,2367,823,27.00
104685,2370,821,27.00
104660,2372,823,27.00
104624,2369,819,27.00
104619,2367,820,27.00
104608,2369,819,27.00
104597,2373,825,27.00
104669,2371,823,27.00
104738,2369,823,27.00
104776,2367,822,27.00
104775,2368,822,27.00
104755,2368,823,27.00
104711,2368,821,27.00
104698,2368,821,27.00
104691,2369,819,27.00
104691,2368,819,27.00
104621,2369,819,27.00
104553,2369,823,27.00
104510,2369,825,27.00
104464,2373,821,27.00
104418,2368,823,27.00
104479,2369,822,27.00
104568,2372,821,27.00
104634,2370,823,27.00
104672,2377,824,27.00
104683,2368,823,27.00
104731,2368,827,27.00
104828,2369,821,27.00
104912,2369,822,27.00
104946,2367,823,27.00
105037,2369,822,27.00
105163,2370,826,27.00
105305,2368,818,27.00
105474,2368,818,27.00
105545,2374,826,27.00
105606,2366,820,27.00
105674,2374,821,27.00
105743,2369,819,27.00
105746,2378,819,27.00
105759,2375,822,27.00
105837,2378,825,27.00
105859,2378,823,27.00
105824,2374,822,27.00
105763,2375,822,27.00
105711,2377,822,27.00
105715,2374,822,27.00
105696,2378,825,27.00
105649,2378,823,27.00
105643,2375,826,27.00
105676,2381,821,27.00
105651,2382,827,27.00
105671,2373,823,27.00
105710,2378,823,27.00
105736,2378,823,27.00
105712,2381,823,27.00
105667,2371,825,27.00
105649,2379,825,27.00
105601,2381,825,27.00
105601,2375,819,27.00
105601,2378,818,27.00
105559,2376,822,27.00
105494,2377,823,27.00
105467,2381,829,27.00
105455,2375,820,27.00
105393,2379,817,27.00
105327,2375,823,27.00
105266,2379,823,27.00
105219,2378,823,27.00
105173,2375,823,27.00
105161,2379,823,27.00
105109,2381,822,27.00
105076,2379,829,27.00
105086,2377,825,27.00
105132,2380,823,27.00
105176,2377,821,27.00
105254,2381,823,27.00
105331,2381,823,27.00
105420,2378,827,27.00
105554,2378,824,27.00
105747,2384,825,27.00
106055,2384,823,27.00
106499,2384,823,27.00
106846,2384,823,27.00
107179,2381,823,27.00
107513,2384,821,27.00
107885,2383,823,27.00
108185,2384,822,27.00
108453,2386,822,27.00
108679,2387,823,27.00
108889,2386,825,27.00
109061,2387,825,27.00
109170,2388,827,27.00
109299,2395,823,27.00
109464,2386,825,27.00
109730,2389,826,27.00
110151,2391,823,27.00
110693,2388,824,27.00
111223,2387,825,27.00
111776,2385,822,27.00
112228,2384,821,27.00
112600,2387,823,27.00
112910,2387,822,27.00
113158,2384,820,27.00
113460,2382,819,27.00
113757,2386,818,27.00
114013,2386,819,27.00
114107,2397,819,27.00
114131,2394,822,27.00
114172,2389,822,27.00
114022,2390,825,27.00
113716,2396,826,27.00
113470,2388,823,27.00
113421,2395,827,27.00
113480,2391,826,27.00
113544,2422,824,27.00
113568,2387,824,27.00
113561,2392,823,27.00
113561,2393,822,27.00
113619,2391,821,27.00
113678,2384,818,27.00
113545,2387,816,27.00
113208,2391,820,27.00
113039,2397,823,27.00
113050,2397,819,27.00
113121,2398,821,27.00
113145,2397,823,27.00
113122,2397,822,27.00
113136,2396,825,27.00
113200,2398,825,27.00
113350,2397,826,27.00
113395,2396,826,27.00
113002,2397,821,27.00
112042,2395,823,27.00
110153,2394,823,27.00
107482,2395,821,27.00
105443,2385,818,27.00
105345,2389,818,27.00
106410,2393,821,27.00
107358,2387,819,27.00
108288,2393,823,27.00
108927,2391,824,27.00
108633,2390,823,27.00
107949,2394,823,27.00
107461,2395,817,27.00
107366,2389,825,27.00
107437,2390,826,27.00
107316,2393,823,27.00
106948,2393,825,27.00
106486,2394,823,27.00
105700,2391,827,27.00
104723,2395,823,27.00
103989,2390,825,27.00
103476,2390,827,27.00
103003,2391,822,27.00
102596,2389,825,27.00
102263,2395,823,27.00
101909,2397,827,27.00
101439,2399,823,27.00
100883,2395,822,27.00
100405,2397,826,27.00
100064,2397,825,27.00
99859,2394,826,27.00
99881,2394,823,27.00
100055,2394,825,27.00
100375,2397,826,27.00
100631,2395,830,27.00
100677,2389,822,27.00
100543,2387,826,27.00
100473,2391,820,27.00
100485,2391,825,27.00
100398,2393,826,27.00
100110,2395,826,27.00
99829,2395,823,27.00
99803,2395,824,27.00
99802,2393,823,27.00
99594,2390,824,27.00
99175,2385,826,27.00
98684,2394,821,27.00
98362,2394,822,27.00
98422,2389,821,27.00
98486,2389,819,27.00
98608,2382,820,27.00
98635,2385,818,27.00
98549,2384,818,27.00
98448,2390,827,27.00
98390,2387,818,27.00
98299,2384,823,27.00
98253,2388,825,27.00
98259,2390,826,27.00
98201,2393,825,27.00
98166,2391,823,27.00
98293,2389,827,27.00
98649,2389,823,27.00
99162,2384,824,27.00
99677,2384,824,27.00
100110,2384,825,27.00
100319,2387,826,27.00
100374,2401,823,27.00
100397,2384,822,27.00
100443,2384,818,27.00
100370,2384,821,27.00
100093,2387,822,27.00
99764,2384,818,27.00
99514,2384,821,27.00
99373,2385,817,27.00
99243,2384,822,27.00
99113,2385,830,27.00
99027,2387,818,27.00
98888,2387,819,27.00
98650,2387,818,27.00
98513,2388,823,27.00
98527,2386,821,27.00
98570,2389,825,27.00
98650,2389,825,27.00
98605,2388,827,27.00
98468,2384,823,27.00
98291,2385,826,27.00
98169,2384,825,27.00
98159,2381,826,27.00
98294,2379,826,27.00
98482,2385,823,27.00
98676,2385,823,27.00
98782,2387,823,27.00
98818,2386,822,27.00
98809,2384,819,27.00
98849,2386,819,27.00
98840,2386,821,27.00
98810,2384,823,27.00
98837,2387,816,27.00
98989,2387,825,27.00
99280,2390,823,27.00
99567,2387,823,27.00
99876,2389,822,27.00
100259,2386,826,27.00
100568,2385,819,27.00
100770,2387,822,27.00
101067,2388,825,27.00
101369,2384,823,27.00
101397,2385,823,27.00
101012,2385,822,27.00
100123,2383,822,27.00
99277,2390,823,27.00
98889,2387,825,27.00
98884,2383,823,27.00
99052,2381,822,27.00
99141,2384,821,27.00
99217,2387,822,27.00
99360,2389,821,27.00
99451,2387,818,27.00
99757,2387,819,27.00
100229,2386,821,27.00
100759,2384,819,27.00
100979,2385,823,27.00
100598,2386,820,27.00
99851,2387,821,27.00
99196,2387,820,27.00
98716,2387,823,27.00
98354,2386,821,27.00
98114,2384,819,27.00
97828,2391,826,27.00
97521,2387,821,27.00
97321,2389,823,27.00
97462,2386,825,27.00
97969,2388,827,27.00
98831,2385,823,27.00
99882,2384,823,27.00
100866,2384,825,27.00
101724,2384,822,27.00
102502,2384,823,27.00
103141,2381,818,27.00
103628,2378,816,27.00
104051,2375,819,27.00
104477,2377,819,27.00
104841,2378,822,27.00
104989,2376,822,27.00
104977,2377,821,27.00
104966,2374,822,27.00
105021,2382,822,27.00
105121,2379,825,27.00
105195,2375,825,27.00
105274,2376,823,27.00
105328,2377,821,27.00
105360,2374,823,27.00
105347,2376,823,27.00
105339,2377,823,27.00
105377,2373,822,27.00
105405,2377,823,27.00
105441,2375,825,27.00
105451,2374,822,27.00
105412,2375,824,27.00
105334,2374,825,27.00
105235,2372,822,27.00
105161,2379,821,27.00
105070,2375,820,27.00
104979,2379,821,27.00
104914,2378,823,27.00
104896,2373,823,27.00
104824,2376,826,27.00
104676,2384,827,27.00
104491,2375,823,27.00
104377,2378,822,27.00
104333,2379,826,27.00
104330,2381,827,27.00
104389,2375,827,27.00
104531,2379,822,27.00
104734,2379,825,27.00
104899,2379,823,27.00
105005,2379,821,27.00
105055,2377,824,27.00
105139,2375,822,27.00
105223,2370,828,27.00
105304,2373,822,27.00
105294,2374,822,27.00
105230,2379,819,27.00
105146,2375,820,27.00
105052,2369,818,27.00
105011,2375,825,27.00
104927,2379,821,27.00
104857,2380,823,27.00
104829,2384,823,27.00
104856,2386,823,27.00
104909,2381,826,27.00
105037,2380,826,27.00
105130,2374,821,27.00
105245,2377,822,27.00
105328,2377,823,27.00
105320,2379,822,27.00
105259,2375,819,27.00
105213,2381,822,27.00
105225,2381,819,27.00
105270,2383,821,27.00
105393,2381,819,27.00
105511,2383,820,27.00
105669,2384,821,27.00
105842,2383,821,27.00
105985,2382,819,27.00
106098,2383,822,27.00
106110,2384,825,27.00
106120,2381,823,27.00
106157,2384,820,27.00
106195,2384,825,27.00
106173,2384,824,27.00
106097,2382,819,27.00
105966,2382,829,27.00
105812,2379,818,27.00
105695,2377,816,27.00
105576,2381,822,27.00
105547,2379,823,27.00
105508,2380,822,27.00
105362,2381,822,27.00
105114,2381,822,27.00
104976,2384,821,27.00
105006,2379,823,27.00
105193,2380,826,27.00
105570,2381,823,27.00
106038,2382,826,27.00
106415,2381,822,27.00
106587,2378,824,27.00
106540,2382,823,27.00
106344,2376,822,27.00
106146,2373,823,27.00
105981,2378,822,27.00
105780,2373,823,27.00
105494,2375,823,27.00
105184,2373,825,27.00
104949,2371,823,27.00
104916,2370,823,27.00
104971,2397,825,27.00
104996,2373,823,27.00
104996,2373,818,27.00
104954,2370,819,27.00
104988,2371,823,27.00
105007,2373,823,27.00
104961,2374,822,27.00
104874,2372,823,27.00
104805,2373,823,27.00
104857,2369,825,27.00
104927,2371,823,27.00
104978,2375,824,27.00
105035,2370,823,27.00
105110,2371,820,27.00
105214,2373,819,27.00
105394,2369,816,27.00
105603,2368,821,27.00
105895,2371,829,27.00
106202,2374,819,27.00
106396,2371,823,27.00
106541,2369,821,27.00
106665,2372,823,27.00
106722,2369,823,27.00
106709,2369,823,27.00
106666,2373,823,27.00
106632,2372,825,27.00
106610,2368,823,27.00
106580,2371,819,27.00
106533,2373,826,27.00
106515,2373,822,27.00
106546,2371,819,27.00
106682,2369,819,27.00
106780,2371,821,27.00
106875,2371,820,27.00
106929,2373,823,27.00
106992,2368,823,27.00
107080,2373,823,27.00
107152,2373,822,27.00
107254,2369,825,27.00
107379,2368,825,27.00
107458,2369,827,27.00
107542,2368,826,27.00
107639,2369,816,27.00
107775,2368,823,27.00
107895,2370,824,27.00
108019,2368,822,27.00
108129,2369,826,27.00
108250,2369,823,27.00
108363,2374,825,27.00
108420,2369,823,27.00
108498,2370,823,27.00
108575,2367,823,27.00
108647,2367,823,27.00
108697,2367,824,27.00
108774,2364,823,27.00
108880,2357,822,27.00
108979,2368,823,27.00
109079,2368,822,27.00
109119,2370,825,27.00
109159,2370,823,27.00
109192,2370,825,27.00
109263,2374,823,27.00
109371,2367,821,27.00
109469,2369,826,27.00
109501,2364,821,27.00
109489,2366,823,27.00
109452,2389,822,27.00
109446,2369,822,27.00
109464,2369,819,27.00
109509,2368,818,27.00
109544,2372,817,27.00
109554,2373,823,27.00
109552,2373,820,27.00
109537,2372,821,27.00
109508,2370,822,27.00
109483,2371,823,27.00
109495,2371,822,27.00
109495,2372,823,27.00
109475,2373,826,27.00
109460,2373,822,27.00
109455,2373,827,27.00
109425,2370,823,27.00
109427,2373,820,27.00
108789,2374,822,27.00
108729,2375,823,27.00
108698,2368,821,27.00
108704,2373,823,27.00
108719,2378,820,27.00
108761,2377,821,27.00
108744,2373,821,27.00
108717,2374,823,27.00
108678,2375,830,27.00
108697,2375,826,27.00
108700,2372,823,27.00
108666,2371,825,27.00
108641,2375,822,27.00
108581,2377,825,27.00
108561,2371,823,27.00
108543,2375,822,27.00
108575,2375,825,27.00
108569,2376,825,27.00
108546,2375,823,27.00
108484,2371,823,27.00
108481,2373,821,27.00
108492,2379,822,27.00
108445,2369,823,27.00
108350,2368,823,27.00
108234,2371,823,27.00
108116,2403,822,27.00
108002,2370,823,27.00
107907,2375,823,27.00
107833,2371,822,27.00
107734,2379,823,27.00
107825,2373,822,27.00
108000,2375,822,27.00
108242,2375,826,27.00
108546,2378,823,27.00
108738,2374,823,27.00
108894,2370,823,27.00
108966,2370,826,27.00
109054,2397,822,27.00
109205,2376,827,27.00
109272,2377,821,27.00
109280,2370,819,27.00
109239,2370,820,27.00
109195,2375,821,27.00
109389,2379,822,27.00
109644,2375,821,27.00
109777,2373,821,27.00
109954,2375,823,27.00
110091,2379,825,27.00
110175,2374,823,27.00
110339,2375,826,27.00
110642,2372,823,27.00
110805,2373,825,27.00
110862,2375,823,27.00
111233,2373,822,27.00
112018,2371,824,27.00
113026,2373,822,27.00
113905,2374,821,27.00
114617,2377,827,27.00
115194,2375,826,27.00
115906,2373,826,27.00
116477,2372,823,27.00
116956,2377,820,27.00
117450,2369,826,27.00
117891,2369,822,27.00
118215,2368,827,27.00
118376,2370,824,27.00
118512,2366,823,27.00
118792,2369,826,27.00
119270,2368,826,27.00
119630,2365,826,27.00
119912,2368,824,27.00
119639,2370,826,27.00
118231,2370,821,27.00
115812,2374,822,27.00
112970,2379,822,27.00
111699,2384,823,27.00
113675,2389,822,27.00
116685,2387,819,27.00
118914,2383,818,27.00
120213,2383,826,27.00
120589,2381,827,27.00
120242,2377,826,27.00
119964,2377,823,27.00
119683,2377,823,27.00
119221,2368,823,27.00
118317,2368,826,27.00
117590,2368,823,27.00
117425,2369,825,27.00
117142,2375,823,27.00
117523,2369,820,27.00
118129,2367,818,27.00
118581,2377,829,27.00
118869,2371,821,27.00
118899,2371,825,27.00
118697,2368,822,27.00
118454,2367,823,27.00
118440,2366,822,27.00
118544,2365,826,27.00
118650,2367,821,27.00
118687,2365,824,27.00
118600,2362,826,27.00
118527,2366,825,27.00
118602,2366,826,27.00
118737,2363,823,27.00
118724,2367,823,27.00
118498,2365,821,27.00
118154,2369,821,27.00
117729,2368,822,27.00
117461,2368,825,27.00
117268,2368,822,27.00
117079,2369,825,27.00
116930,2368,823,27.00
116962,2369,825,27.00
117036,2368,823,27.00
116970,2372,823,27.00
116737,2371,823,27.00
116451,2382,825,27.00
116258,2371,823,27.00
116297,2369,820,27.00
116327,2370,822,27.00
116305,2369,823,27.00
116179,2375,822,27.00
116037,2370,821,27.00
115957,2374,820,27.00
115773,2371,821,27.00
115339,2374,821,27.00
114817,2374,832,27.00
114554,2376,822,27.00
114891,2383,823,27.00
115578,2375,823,27.00
116228,2379,820,27.00
116605,2373,826,27.00
116449,2371,823,27.00
115871,2370,823,27.00
115296,2375,823,27.00
114915,2374,821,27.00
114871,2373,821,27.00
115037,2377,819,27.00
115188,2382,821,27.00
115138,2378,823,27.00
114962,2375,822,27.00
114723,2379,822,27.00
114483,2374,823,27.00
114357,2379,821,27.00
114376,2375,822,27.00
114597,2378,821,27.00
114826,2378,826,27.00
114853,2377,830,27.00
114606,2379,823,27.00
114146,2381,823,27.00
113722,2384,832,27.00
113455,2383,823,27.00
113401,2379,823,27.00
113501,2375,823,27.00
113722,2378,821,27.00
113988,2378,823,27.00
114154,2375,818,27.00
114262,2381,823,27.00
114344,2375,823,27.00
114391,2377,823,27.00
114555,2377,822,27.00
114799,2378,826,27.00
114956,2378,827,27.00
115004,2373,822,27.00
114966,2375,826,27.00
114959,2373,822,27.00
114982,2373,819,27.00
115149,2369,816,27.00
115461,2371,820,27.00
115720,2374,819,27.00
115866,2375,823,27.00
115922,2366,821,27.00
115921,2374,821,27.00
115844,2369,820,27.00
115792,2368,826,27.00
115789,2370,823,27.00
115816,2369,825,27.00
115805,2371,823,27.00
115759,2369,825,27.00
115591,2370,823,27.00
115454,2369,828,27.00
115358,2370,823,27.00
115317,2367,823,27.00
115295,2368,822,27.00
115201,2368,823,27.00
115089,2371,819,27.00
115033,2368,819,27.00
115046,2366,819,27.00
115083,2368,818,27.00
115163,2371,821,27.00
115240,2364,821,27.00
115267,2363,820,27.00
115198,2362,820,27.00
115118,2367,829,27.00
115026,2368,820,27.00
114903,2366,821,27.00
114811,2368,821,27.00
114751,2368,823,27.00
114729,2365,821,27.00
114710,2365,820,27.00
114665,2370,823,27.00
114549,2365,825,27.00
114521,2366,822,27.00
114574,2367,825,27.00
114649,2365,825,27.00
114713,2362,823,27.00
114814,2359,827,27.00
115036,2365,826,27.00
115201,2362,823,27.00
115296,2358,818,27.00
115331,2355,819,27.00
115308,2359,819,27.00
115374,2361,821,27.00
115536,2365,821,27.00
115646,2361,824,27.00
115677,2359,823,27.00
115668,2355,826,27.00
115678,2363,830,27.00
115680,2358,823,27.00
115734,2359,827,27.00
115794,2357,823,27.00
115805,2359,823,27.00
115773,2355,823,27.00
115693,2357,822,27.00
115680,2355,822,27.00
115670,2356,823,27.00
115638,2362,827,27.00
115532,2359,825,27.00
115494,2357,827,27.00
115499,2353,824,27.00
115500,2354,822,27.00
115534,2352,819,27.00
115516,2352,825,27.00
115417,2355,821,27.00
115252,2358,826,27.00
115138,2354,821,27.00
115031,2358,826,27.00
115021,2354,823,27.00
115056,2357,823,27.00
115155,2353,823,27.00
115251,2355,823,27.00
115420,2358,820,27.00
115613,2359,823,27.00
115764,2357,823,27.00
115817,2354,827,27.00
115827,2352,823,27.00
115827,2382,827,27.00
115820,2352,821,27.00
115860,2353,820,27.00
115944,2352,819,27.00
116006,2352,819,27.00
116034,2349,819,27.00
116109,2352,819,27.00
116168,2352,822,27.00
116253,2349,820,27.00
116344,2349,823,27.00
116407,2347,822,27.00
116432,2343,821,27.00
116491,2347,824,27.00
116565,2349,823,27.00
116682,2337,821,27.00
116834,2331,823,27.00
116913,2338,823,27.00
116981,2334,821,27.00
116995,2331,821,27.00
117015,2332,819,27.00
116999,2330,821,27.00
116999,2332,821,27.00
116954,2334,818,27.00
116882,2335,823,27.00
116845,2334,819,27.00
116825,2334,822,27.00
116840,2335,822,27.00
116864,2331,821,27.00
116895,2334,824,27.00
116941,2333,825,27.00
116960,2329,821,27.00
116959,2334,827,27.00
116927,2335,823,27.00
116910,2336,822,27.00
116910,2331,826,27.00
116925,2333,821,27.00
116952,2334,823,27.00
116952,2335,828,27.00
116948,2331,823,27.00
116915,2329,819,27.00
116868,2333,823,27.00
116857,2335,825,27.00
116852,2331,824,27.00
116830,2336,831,27.00
116805,2336,823,27.00
116810,2331,826,27.00
116825,2332,822,27.00
116836,2331,823,27.00
116840,2335,822,27.00
116852,2336,827,27.00
116864,2331,823,27.00
116876,2337,823,27.00
116859,2327,823,27.00
116825,2331,819,27.00
116735,2332,821,27.00
116651,2329,821,27.00
116553,2334,819,27.00
116440,2334,819,27.00
116380,2334,820,27.00
116409,2327,823,27.00
116497,2335,823,27.00
116529,2336,826,27.00
116567,2333,826,27.00
116590,2333,821,27.00
116581,2335,825,27.00
116549,2333,826,27.00
116546,2327,820,27.00
116566,2331,823,27.00
116503,2333,822,27.00
116519,2329,822,27.00
116512,2330,825,27.00
116441,2339,821,27.00
116348,2331,823,27.00
116354,2330,823,27.00
116406,2331,825,27.00
116400,2331,825,27.00
116389,2329,823,27.00
116438,2331,825,27.00
116501,2330,822,27.00
116573,2333,825,27.00
116574,2327,826,27.00
116525,2319,825,27.00
116453,2339,823,27.00
116397,2331,821,27.00
116355,2330,819,27.00
116297,2330,821,27.00
116235,2331,826,27.00
116186,2334,823,27.00
116153,2334,821,27.00
116106,2334,825,27.00
116086,2333,821,27.00
116123,2335,822,27.00
116168,2322,825,27.00
116237,2335,821,27.00
116270,2333,820,27.00
116283,2331,817,27.00
116269,2331,819,27.00
116247,2330,821,27.00
116234,2329,822,27.00
116242,2334,821,27.00
116262,2335,819,27.00
116269,2332,827,27.00
116281,2335,822,27.00
116275,2331,823,27.00
116160,2333,825,27.00
116005,2335,823,27.00
115835,2336,822,27.00
115735,2321,826,27.00
115710,2334,821,27.00
115621,2333,822,27.00
115488,2329,822,27.00
115520,2331,824,27.00
115490,2334,819,27.00
115369,2333,819,27.00
115184,2333,819,27.00
114905,2338,818,27.00
114614,2342,821,27.00
114379,2342,823,27.00
114309,2343,822,27.00
114387,2342,821,27.00
114509,2342,824,27.00
114689,2343,823,27.00
114866,2341,818,27.00
115002,2342,818,27.00
115036,2346,819,27.00
115059,2345,822,27.00
115084,2347,823,27.00
115123,2340,822,27.00
115112,2341,824,27.00
115100,2349,825,27.00
115067,2345,823,27.00
115060,2343,823,27.00
114950,2343,824,27.00
114855,2346,825,27.00
114786,2343,823,27.00
114755,2347,825,27.00
114753,2343,824,27.00
114758,2339,825,27.00
114756,2347,821,27.00
114718,2347,825,27.00
114612,2346,821,27.00
114478,2339,821,27.00
114441,2346,821,27.00
114442,2351,821,27.00
114487,2337,822,27.00
114556,2342,822,27.00
114578,2341,826,27.00
114572,2343,824,27.00
114518,2350,821,27.00
114463,2348,818,27.00
114441,2343,829,27.00
114415,2352,821,27.00
114387,2352,822,27.00
114376,2346,822,27.00
114347,2349,826,27.00
114337,2352,825,27.00
114275,2352,821,27.00
114254,2351,825,27.00
114226,2352,828,27.00
114210,2352,826,27.00
114175,2353,821,27.00
114163,2352,825,27.00
114124,2348,823,27.00
114100,2346,826,27.00
114056,2347,823,27.00
114021,2350,819,27.00
114008,2347,819,27.00
114032,2351,821,27.00
114038,2351,819,27.00
114043,2352,824,27.00
114036,2352,823,27.00
114068,2353,819,27.00
114105,2346,821,27.00
114177,2349,821,27.00
114247,2352,819,27.00
114267,2343,819,27.00
114266,2352,821,27.00
114296,2352,819,27.00
114334,2352,819,27.00
114396,2352,821,27.00
114435,2351,827,27.00
114451,2351,828,27.00
114410,2355,826,27.00
114387,2352,826,27.00
114417,2355,825,27.00
114439,2355,823,27.00
114372,2353,823,27.00
114270,2350,825,27.00
114152,2350,822,27.00
114102,2349,819,27.00
114060,2351,818,27.00
113978,2351,819,27.00
113856,2353,818,27.00
113771,2353,821,27.00
113718,2353,824,27.00
113667,2352,823,27.00
113622,2351,823,27.00
113535,2351,821,27.00
113484,2343,822,27.00
113428,2351,817,27.00
113395,2352,821,27.00
113363,2352,821,27.00
113390,2352,821,27.00
113438,2354,823,27.00
113477,2352,825,27.00
113517,2355,823,27.00
113565,2352,825,27.00
113608,2352,824,27.00
113660,2351,823,27.00
113712,2352,822,27.00
113772,2352,822,27.00
113806,2352,825,27.00
113832,2347,823,27.00
113843,2352,822,27.00
113832,2349,822,27.00
113880,2351,822,27.00
113914,2349,818,27.00
113902,2352,819,27.00
113885,2353,821,27.00
113869,2351,822,27.00
113907,2352,823,27.00
113912,2342,823,27.00
113948,2347,826,27.00
113937,2352,821,27.00
113893,2350,818,27.00
113899,2350,819,27.00
113914,2352,820,27.00
113894,2352,821,27.00
113866,2350,823,27.00
113875,2352,823,27.00
113889,2351,825,27.00
113895,2353,823,27.00
113893,2352,823,27.00
113876,2352,822,27.00
113866,2351,826,27.00
113893,2348,825,27.00
113917,2347,822,27.00
113924,2345,826,27.00
113931,2351,821,27.00
113982,2347,816,27.00
113998,2351,821,27.00
114018,2355,819,27.00
113979,2349,822,27.00
113953,2347,821,27.00
113958,2352,825,27.00
113929,2352,822,27.00
113899,2349,823,27.00
113825,2352,823,27.00
113761,2347,816,27.00
113741,2350,819,27.00
113756,2351,823,27.00
113780,2352,821,27.00
113778,2348,825,27.00
113763,2349,821,27.00
113717,2350,823,27.00
113722,2350,822,27.00
113739,2351,826,27.00
113743,2351,823,27.00
113733,2347,824,27.00
113740,2352,825,27.00
113743,2353,826,27.00
113782,2352,827,27.00
113794,2343,822,27.00
113819,2373,826,27.00
113845,2352,823,27.00
113868,2350,821,27.00
113870,2350,817,27.00
113889,2352,830,27.00
113918,2352,822,27.00
113923,2342,822,27.00
113909,2346,821,27.00
113907,2349,823,27.00
113919,2352,822,27.00
113874,2351,826,27.00
113847,2349,818,27.00
113840,2346,817,27.00
113809,2350,821,27.00
113755,2352,818,27.00
113707,2349,823,27.00
113641,2345,825,27.00
113607,2352,823,27.00
113586,2352,822,27.00
113562,2351,823,27.00
113504,2352,822,27.00
113433,2352,826,27.00
113373,2350,825,27.00
113310,2352,825,27.00
113269,2352,822,27.00
113208,2347,822,27.00
113135,2343,823,27.00
113045,2351,823,27.00
113014,2349,820,27.00
112959,2351,819,27.00
112972,2352,818,27.00
112937,2352,822,27.00
112893,2351,825,27.00
112867,2350,823,27.00
112839,2353,826,27.00
112813,2352,823,27.00
112771,2351,820,27.00
112795,2350,822,27.00
112807,2350,821,27.00
112770,2352,821,27.00
112707,2352,821,27.00
112656,2352,827,27.00
112596,2352,825,27.00
112602,2350,823,27.00
112592,2352,827,27.00
112591,2350,827,27.00
112592,2352,823,27.00
112613,2352,825,27.00
112656,2352,825,27.00
112724,2352,822,27.00
112810,2349,823,27.00
112885,2347,822,27.00
112967,2352,820,27.00
113054,2351,819,27.00
113179,2355,819,27.00
113284,2352,821,27.00
113377,2350,826,27.00
113408,2352,823,27.00
113407,2352,825,27.00
113389,2351,823,27.00
113334,2352,823,27.00
113293,2352,826,27.00
113230,2348,821,27.00
113218,2351,819,27.00
113132,2352,822,27.00
111779,2349,823,27.00
111743,2352,826,27.00
111713,2352,825,27.00
111684,2352,826,27.00
111668,2351,823,27.00
111665,2349,823,27.00
111643,2350,823,27.00
111485,2347,823,27.00
111503,2349,825,27.00
111867,2347,819,27.00
112444,2354,823,27.00
113023,2352,819,27.00
113365,2352,818,27.00
113439,2352,823,27.00
113305,2349,823,27.00
113183,2352,824,27.00
113166,2349,821,27.00
113266,2350,825,27.00
113443,2349,823,27.00
113575,2348,822,27.00
113606,2350,826,27.00
113542,2347,823,27.00
113400,2347,826,27.00
113272,2345,825,27.00
113218,2357,825,27.00
113330,2352,826,27.00
113556,2347,825,27.00
113646,2349,823,27.00
113554,2352,824,27.00
113360,2352,823,27.00
113188,2345,825,27.00
113037,2344,824,27.00
112992,2339,823,27.00
112994,2345,823,27.00
113044,2343,819,27.00
113078,2344,822,27.00
113010,2349,822,27.00
112895,2351,823,27.00
112877,2351,822,27.00
112850,2349,825,27.00
112818,2351,821,27.00
112739,2350,826,27.00
112598,2350,827,27.00
112365,2350,822,27.00
112102,2348,823,27.00
111947,2351,827,27.00
111937,2350,823,27.00
112110,2350,822,27.00
112164,2347,822,27.00
112293,2345,823,27.00
112366,2349,819,27.00
112365,2352,825,27.00
112336,2352,823,27.00
112328,2351,825,27.00
112410,2351,825,27.00
112519,2343,822,27.00
112583,2351,825,27.00
112655,2346,819,27.00
112657,2345,819,27.00
112549,2338,818,27.00
112333,2350,819,27.00
111986,2349,821,27.00
111557,2347,820,27.00
111324,2350,822,27.00
111539,2346,823,27.00
111929,2350,823,27.00
112201,2349,829,27.00
112319,2351,827,27.00
112341,2352,823,27.00
112168,2352,828,27.00
111997,2351,824,27.00
111862,2349,825,27.00
111570,2353,823,27.00
111174,2351,826,27.00
110713,2351,823,27.00
110234,2351,820,27.00
109776,2351,826,27.00
109514,2355,824,27.00
109352,2355,823,27.00
109262,2352,825,27.00
109096,2352,822,27.00
108838,2352,823,27.00
108517,2354,825,27.00
108145,2355,826,27.00
107791,2354,822,27.00
107560,2353,823,27.00
107397,2355,825,27.00
107291,2352,823,27.00
107187,2352,827,27.00
107117,2351,825,27.00
107160,2352,822,27.00
107272,2351,821,27.00
107438,2352,821,27.00
107474,2352,817,27.00
107345,2347,831,27.00
107216,2350,821,27.00
107102,2353,820,27.00
106971,2349,821,27.00
106967,2347,823,27.00
107152,2349,825,27.00
107397,2350,823,27.00
107584,2349,825,27.00
107667,2350,825,27.00
107712,2343,819,27.00
107738,2345,817,27.00
107712,2340,821,27.00
107714,2347,829,27.00
107677,2351,821,27.00
107657,2350,822,27.00
107678,2352,826,27.00
107694,2351,822,27.00
107684,2352,823,27.00
107586,2352,827,27.00
107425,2351,821,27.00
107312,2351,825,27.00
107191,2352,829,27.00
107108,2352,825,27.00
107065,2350,822,27.00
107048,2351,826,27.00
106944,2353,823,27.00
106802,2352,825,27.00
106742,2352,822,27.00
106757,2352,825,27.00
106791,2352,821,27.00
106760,2352,826,27.00
106769,2349,826,27.00
106791,2367,823,27.00
106748,2345,822,27.00
106694,2352,819,27.00
106748,2352,822,27.00
106813,2351,823,27.00
106791,2352,822,27.00
106801,2349,823,27.00
106814,2352,825,27.00
106762,2352,825,27.00
106812,2353,823,27.00
106947,2351,822,27.00
107064,2352,822,27.00
107099,2354,822,27.00
107146,2341,823,27.00
107176,2351,823,27.00
107149,2345,825,27.00
107244,2350,819,27.00
107586,2350,819,27.00
108151,2345,818,27.00
108838,2347,818,27.00
109734,2347,821,27.00
110663,2349,826,27.00
111586,2347,821,27.00
112398,2343,821,27.00
113093,2340,825,27.00
113819,2339,822,27.00
114834,2339,825,27.00
116381,2334,823,27.00
118678,2340,823,27.00
120323,2329,821,27.00
121381,2330,821,27.00
121995,2330,823,27.00
122336,2331,823,27.00
122529,2334,825,27.00
122600,2337,823,27.00
122616,2341,825,27.00
122668,2336,825,27.00
122792,2339,826,27.00
122955,2342,824,27.00
123130,2343,821,27.00
123265,2346,829,27.00
123328,2341,823,27.00
123383,2349,827,27.00
123442,2342,825,27.00
123527,2346,823,27.00
123644,2341,825,27.00
123767,2346,825,27.00
123857,2343,822,27.00
123898,2340,821,27.00
123475,2347,819,27.00
122239,2353,821,27.00
120195,2367,823,27.00
118377,2378,819,27.00
117627,2381,823,27.00
117802,2382,819,27.00
118321,2384,823,27.00
118865,2382,822,27.00
119554,2374,822,27.00
120311,2378,823,27.00
120810,2370,826,27.00
121104,2371,821,27.00
121320,2369,819,27.00
121415,2369,822,27.00
121490,2367,822,27.00
121532,2370,823,27.00
121522,2368,823,27.00
121427,2369,825,27.00
121230,2368,821,27.00
121041,2369,826,27.00
120797,2371,822,27.00
120451,2373,824,27.00
119980,2375,825,27.00
119602,2375,823,27.00
119462,2378,823,27.00
119607,2377,823,27.00
119816,2368,824,27.00
120093,2369,821,27.00
120379,2390,825,27.00
120440,2370,826,27.00
120297,2381,822,27.00
120186,2368,818,27.00
120386,2371,825,27.00
120685,2368,822,27.00
120806,2368,825,27.00
120794,2368,823,27.00
120725,2366,822,27.00
120554,2375,825,27.00
120300,2366,825,27.00
119977,2361,817,27.00
119642,2363,818,27.00
119330,2364,822,27.00
119097,2365,822,27.00
118957,2366,822,27.00
118798,2362,825,27.00
118622,2363,821,27.00
118455,2365,823,27.00
118315,2363,826,27.00
118199,2362,823,27.00
118067,2361,825,27.00
117869,2366,823,27.00
117681,2362,825,27.00
117514,2368,823,27.00
117359,2367,823,27.00
117246,2366,827,27.00
117160,2362,825,27.00
117126,2366,823,27.00
117099,2368,819,27.00
117158,2368,827,27.00
117275,2368,825,27.00
117338,2368,825,27.00
117342,2365,826,27.00
117357,2364,822,27.00
117345,2359,826,27.00
117316,2365,822,27.00
117221,2364,816,27.00
117070,2362,817,27.00
116898,2365,818,27.00
116719,2367,818,27.00
116546,2367,824,27.00
116371,2368,825,27.00
116267,2371,826,27.00
116258,2368,825,27.00
116268,2369,826,27.00
116221,2367,823,27.00
116173,2366,826,27.00
116100,2365,826,27.00
116069,2368,825,27.00
116037,2365,821,27.00
115984,2356,826,27.00
115856,2358,826,27.00
115756,2362,828,27.00
115708,2357,826,27.00
115694,2355,825,27.00
115716,2357,823,27.00
115680,2362,825,27.00
115615,2358,823,27.00
115514,2355,823,27.00
115363,2351,827,27.00
115213,2353,824,27.00
115073,2356,826,27.00
114849,2352,823,27.00
114614,2350,819,27.00
114297,2348,823,27.00
113864,2352,823,27.00
113366,2352,825,27.00
112847,2356,821,27.00
112561,2355,820,27.00
112675,2353,824,27.00
112779,2352,832,27.00
112781,2353,817,27.00
112837,2354,819,27.00
112905,2354,821,27.00
113188,2355,821,27.00
113244,2353,829,27.00
112367,2354,826,27.00
112042,2358,824,27.00
111958,2357,821,27.00
111799,2354,824,27.00
111823,2353,821,27.00
112169,2357,821,27.00
112285,2353,823,27.00
112561,2354,822,27.00
112809,2352,824,27.00
112170,2353,822,27.00
111251,2352,823,27.00
110489,2352,822,27.00
110002,2351,825,27.00
109874,2352,823,27.00
110214,2352,825,27.00
110988,2352,823,27.00
111579,2352,825,27.00
111945,2349,821,27.00
112260,2351,824,27.00
112563,2352,825,27.00
112924,2350,825,27.00
113223,2348,821,27.00
113417,2350,823,27.00
113516,2349,822,27.00
113614,2350,819,27.00
113711,2349,818,27.00
113763,2351,819,27.00
113923,2351,822,27.00
114084,2346,823,27.00
114304,2345,825,27.00
114696,2341,822,27.00
115103,2343,822,27.00
115299,2351,818,27.00
115308,2347,819,27.00
115233,2342,821,27.00
115188,2351,821,27.00
115233,2348,823,27.00
115364,2351,823,27.00
115495,2351,823,27.00
115534,2347,823,27.00
115452,2347,826,27.00
115324,2350,822,27.00
115218,2349,823,27.00
115219,2348,822,27.00
115318,2348,821,27.00
115519,2352,822,27.00
115746,2351,825,27.00
115980,2347,825,27.00
116208,2339,823,27.00
116308,2342,826,27.00
116353,2343,822,27.00
116416,2346,820,27.00
116522,2345,819,27.00
116609,2343,817,27.00
116645,2346,830,27.00
116620,2347,818,27.00
116564,2350,822,27.00
116580,2349,825,27.00
116546,2350,822,27.00
116446,2339,821,27.00
116269,2347,825,27.00
116091,2343,825,27.00
115948,2349,822,27.00
115894,2342,817,27.00
115801,2346,822,27.00
115650,2349,818,27.00
115549,2352,820,27.00
115478,2351,822,27.00
115376,2351,825,27.00
115408,2350,826,27.00
115754,2348,823,27.00
116316,2347,823,27.00
116958,2352,825,27.00
117126,2347,826,27.00
117187,2351,823,27.00
117277,2351,826,27.00
117183,2352,823,27.00
117051,2352,821,27.00
117055,2342,822,27.00
117144,2346,821,27.00
117186,2342,822,27.00
117184,2345,822,27.00
117210,2343,825,27.00
117313,2347,827,27.00
117350,2345,825,27.00
117259,2342,827,27.00
117065,2348,827,27.00
116873,2341,822,27.00
116631,2349,823,27.00
116338,2341,823,27.00
116001,2342,826,27.00
115663,2338,833,27.00
115370,2343,823,27.00
115150,2343,820,27.00
114931,2343,822,27.00
114728,2345,817,27.00
114540,2347,819,27.00
114352,2349,821,27.00
114178,2345,822,27.00
114043,2351,821,27.00
113987,2349,823,27.00
113826,2345,827,27.00
113672,2343,829,27.00
113608,2352,825,27.00
113535,2347,822,27.00
113342,2345,825,27.00
113076,2345,825,27.00
113086,2346,819,27.00
113425,2341,825,27.00
113771,2343,824,27.00
113902,2343,823,27.00
113917,2343,822,27.00
113951,2349,823,27.00
114029,2345,822,27.00
114049,2343,822,27.00
114081,2346,823,27.00
114051,2341,823,27.00
114034,2343,823,27.00
113943,2343,826,27.00
113854,2345,826,27.00
113875,2342,822,27.00
114242,2337,825,27.00
114708,2352,823,27.00
115001,2339,821,27.00
115056,2339,823,27.00
115044,2340,819,27.00
115039,2339,819,27.00
114913,2343,821,27.00
114835,2339,821,27.00
114950,2342,823,27.00
115087,2339,821,27.00
115065,2343,821,27.00
114902,2343,830,27.00
114610,2338,825,27.00
114284,2335,823,27.00
114042,2335,818,27.00
113940,2339,821,27.00
113842,2339,821,27.00
113608,2339,817,27.00
113370,2339,820,27.00
113265,2336,822,27.00
113310,2338,821,27.00
113254,2339,822,27.00
113031,2346,827,27.00
112699,2338,822,27.00
112506,2339,824,27.00
112411,2339,826,27.00
112353,2343,824,27.00
112417,2338,823,27.00
112607,2343,825,27.00
112726,2338,823,27.00
112710,2342,824,27.00
112710,2333,825,27.00
112756,2333,826,27.00
112851,2335,821,27.00
112936,2339,819,27.00
112983,2338,819,27.00
112935,2338,817,27.00
112870,2342,817,27.00
112911,2349,819,27.00
113232,2349,825,27.00
113795,2347,823,27.00
114463,2343,825,27.00
115071,2337,821,27.00
115476,2335,825,27.00
115772,2345,821,27.00
116044,2339,821,27.00
116316,2337,823,27.00
116445,2339,819,27.00
116441,2337,818,27.00
116398,2339,818,27.00
116374,2341,820,27.00
116242,2338,823,27.00
116122,2337,822,27.00
115992,2342,826,27.00
115932,2339,823,27.00
115877,2339,823,27.00
115832,2339,823,27.00
115912,2339,821,27.00
116031,2343,823,27.00
116105,2338,822,27.00
116150,2339,825,27.00
116191,2340,823,27.00
116187,2345,821,27.00
116142,2337,822,27.00
116080,2332,823,27.00
116056,2337,823,27.00
116083,2341,825,27.00
116092,2343,822,27.00
116217,2337,825,27.00
116312,2337,821,27.00
116333,2338,823,27.00
116280,2336,821,27.00
116218,2340,824,27.00
116118,2334,823,27.00
115994,2326,822,27.00
115924,2334,823,27.00
115920,2333,822,27.00
115921,2337,819,27.00
115998,2337,821,27.00
116014,2333,819,27.00
115940,2335,819,27.00
115782,2334,827,27.00
115630,2333,820,27.00
115489,2334,821,27.00
115356,2334,822,27.00
115218,2334,823,27.00
115091,2337,819,27.00
114955,2337,821,27.00
114848,2336,826,27.00
114823,2337,825,27.00
114904,2335,827,27.00
115034,2337,829,27.00
115093,2338,822,27.00
115092,2342,822,27.00
115142,2336,822,27.00
115250,2337,822,27.00
115397,2335,825,27.00
115597,2338,823,27.00
115723,2335,822,27.00
115774,2329,823,27.00
115813,2336,822,27.00
115823,2338,823,27.00
115845,2338,819,27.00
115813,2335,823,27.00
115779,2335,825,27.00
115726,2334,821,27.00
115686,2335,822,27.00
115653,2333,823,27.00
115625,2335,821,27.00
115600,2336,822,27.00
115545,2329,818,27.00
115546,2334,816,27.00
115573,2334,818,27.00
115593,2336,826,27.00
115513,2337,821,27.00
115418,2338,823,27.00
115360,2336,823,27.00
115340,2331,821,27.00
115326,2336,825,27.00
115284,2337,823,27.00
115276,2333,817,27.00
115296,2330,818,27.00
115311,2337,818,27.00
115338,2338,824,27.00
115388,2340,823,27.00
115443,2338,823,27.00
115480,2339,825,27.00
115516,2339,825,27.00
115533,2338,826,27.00
115489,2339,823,27.00
115462,2337,823,27.00
115452,2338,825,27.00
115455,2339,823,27.00
115422,2339,824,27.00
115377,2333,822,27.00
115366,2335,825,27.00
115356,2332,825,27.00
115309,2337,821,27.00
115244,2335,818,27.00
115242,2331,819,27.00
115236,2333,819,27.00
115248,2338,823,27.00
115226,2347,823,27.00
115220,2333,826,27.00
115259,2334,820,27.00
115255,2339,820,27.00
115273,2335,827,27.00
115304,2335,818,27.00
115352,2338,820,27.00
115386,2341,823,27.00
115401,2337,822,27.00
115436,2339,823,27.00
115506,2343,823,27.00
115551,2341,822,27.00
115557,2341,823,27.00
115520,2339,823,27.00
115538,2343,826,27.00
115570,2342,823,27.00
115695,2335,822,27.00
115869,2333,822,27.00
116100,2336,823,27.00
116294,2339,820,27.00
116413,2335,818,27.00
116452,2344,821,27.00
116486,2342,823,27.00
116526,2342,822,27.00
116552,2339,824,27.00
116600,2347,823,27.00
116527,2343,823,27.00
116372,2339,819,27.00
116309,2340,829,27.00
116322,2339,821,27.00
116374,2341,823,27.00
116526,2340,821,27.00
115218,2343,822,27.00
115141,2342,823,27.00
115088,2347,827,27.00
114929,2346,821,27.00
114763,2339,823,27.00
114621,2343,823,27.00
114539,2341,825,27.00
114494,2343,821,27.00
114490,2336,820,27.00
114489,2350,819,27.00
114553,2340,820,27.00
114589,2342,819,27.00
114572,2343,821,27.00
114471,2339,824,27.00
114368,2341,823,27.00
114284,2339,825,27.00
114180,2341,822,27.00
114096,2341,822,27.00
114023,2343,825,27.00
114023,2343,824,27.00
114024,2343,823,27.00
113982,2343,822,27.00
113943,2339,825,27.00
113970,2339,823,27.00
114091,2339,825,27.00
114193,2340,823,27.00
114279,2346,823,27.00
114331,2343,820,27.00
114384,2345,824,27.00
114343,2342,823,27.00
114299,2341,819,27.00
114303,2342,821,27.00
114298,2338,823,27.00
114265,2335,823,27.00
114205,2338,821,27.00
114064,2338,823,27.00
113891,2341,821,27.00
113753,2338,820,27.00
113751,2335,819,27.00
113752,2342,822,27.00
113731,2338,822,27.00
113777,2336,821,27.00
113780,2345,823,27.00
113712,2343,825,27.00
113608,2347,825,27.00
113537,2343,826,27.00
113526,2341,822,27.00
113547,2338,822,27.00
113547,2337,823,27.00
113502,2334,819,27.00
113481,2339,826,27.00
113445,2341,821,27.00
113437,2339,822,27.00
113439,2337,821,27.00
113465,2341,822,27.00
113456,2341,827,27.00
113420,2339,825,27.00
113337,2337,822,27.00
113248,2337,825,27.00
113227,2339,822,27.00
113189,2340,823,27.00
113072,2338,823,27.00
112883,2341,823,27.00
112683,2341,823,27.00
112456,2346,822,27.00
112201,2335,823,27.00
112066,2330,823,27.00
112007,2341,821,27.00
111943,2337,819,27.00
111881,2337,817,27.00
111836,2336,819,27.00
111791,2340,816,27.00
111959,2340,821,27.00
112167,2345,825,27.00
112228,2338,821,27.00
112105,2338,825,27.00
112053,2333,831,27.00
112015,2334,823,27.00
112016,2337,823,27.00
112003,2339,818,27.00
111959,2333,817,27.00
111868,2338,820,27.00
111885,2341,823,27.00
111982,2336,821,27.00
112105,2339,822,27.00
112202,2338,825,27.00
112304,2339,823,27.00
112409,2339,827,27.00
112486,2343,826,27.00
112486,2337,825,27.00
112451,2341,824,27.00
112441,2337,822,27.00
112397,2339,823,27.00
112280,2347,826,27.00
112057,2343,822,27.00
111812,2333,821,27.00
111508,2329,825,27.00
111195,2332,825,27.00
110877,2340,825,27.00
110632,2335,821,27.00
110404,2336,818,27.00
110245,2344,826,27.00
110420,2330,823,27.00
110665,2345,823,27.00
110859,2341,821,27.00
111119,2339,823,27.00
111525,2336,823,27.00
111899,2333,829,27.00
112150,2338,821,27.00
112307,2339,819,27.00
112505,2338,820,27.00
112696,2341,823,27.00
112869,2339,825,27.00
112891,2334,822,27.00
112845,2340,826,27.00
112793,2337,822,27.00
112661,2337,823,27.00
112210,2339,824,27.00
111496,2341,826,27.00
111000,2341,827,27.00
110900,2335,826,27.00
110945,2336,823,27.00
110978,2338,825,27.00
111183,2342,826,27.00
111542,2339,826,27.00
111823,2336,827,27.00
111990,2338,821,27.00
112089,2337,822,27.00
112240,2339,821,27.00
112297,2341,824,27.00
112244,2341,817,27.00
112178,2336,819,27.00
112118,2340,823,27.00
111999,2350,823,27.00
111897,2339,821,27.00
111778,2337,822,27.00
111644,2329,823,27.00
111496,2333,825,27.00
111353,2334,821,27.00
111299,2341,820,27.00
111256,2330,818,27.00
111165,2340,826,27.00
111058,2339,822,27.00
110999,2336,823,27.00
111019,2338,821,27.00
111095,2341,823,27.00
111100,2335,827,27.00
111094,2340,827,27.00
111081,2342,823,27.00
111084,2338,826,27.00
111101,2337,821,27.00
111093,2338,826,27.00
110988,2341,825,27.00
110885,2337,821,27.00
110887,2338,821,27.00
110893,2336,822,27.00
110843,2337,821,27.00
110746,2341,822,27.00
110585,2336,822,27.00
110431,2339,823,27.00
110486,2334,825,27.00
110601,2340,821,27.00
110574,2339,823,27.00
110371,2337,822,27.00
110022,2342,823,27.00
109709,2346,825,27.00
109573,2338,825,27.00
109447,2337,822,27.00
109293,2333,826,27.00
109214,2369,823,27.00
109230,2337,822,27.00
109183,2336,818,27.00
109036,2342,818,27.00
108970,2337,816,27.00
108959,2343,819,27.00
108824,2342,821,27.00
108496,2338,819,27.00
108211,2342,822,27.00
108048,2346,820,27.00
108051,2343,826,27.00
108139,2336,823,27.00
108273,2340,823,27.00
108552,2342,824,27.00
108935,2340,826,27.00
109249,2346,819,27.00
109383,2338,819,27.00
109320,2342,819,27.00
109384,2343,820,27.00
109489,2346,822,27.00
109488,2341,823,27.00
109254,2341,823,27.00
109045,2347,822,27.00
109034,2345,826,27.00
109029,2338,827,27.00
108905,2347,823,27.00
108932,2342,822,27.00
109180,2341,826,27.00
109452,2350,823,27.00
109498,2345,822,27.00
109530,2346,825,27.00
109631,2343,825,27.00
109842,2339,827,27.00
110055,2339,823,27.00
110166,2338,822,27.00
110291,2341,819,27.00
110357,2342,826,27.00
110366,2343,827,27.00
110301,2343,822,27.00
110255,2342,823,27.00
110153,2345,826,27.00
110137,2339,826,27.00
110229,2335,825,27.00
110211,2338,822,27.00
109994,2333,822,27.00
109833,2339,823,27.00
109752,2335,819,27.00
109697,2333,818,27.00
109649,2336,820,27.00
109511,2331,819,27.00
109489,2335,819,27.00
109557,2341,822,27.00
109565,2337,822,27.00
109501,2342,827,27.00
109446,2337,826,27.00
109428,2339,823,27.00
109439,2335,822,27.00
109427,2337,827,27.00
109352,2336,822,27.00
109203,2337,823,27.00
109110,2335,823,27.00
109060,2336,822,27.00
108983,2343,826,27.00
108912,2339,823,27.00
108884,2335,825,27.00
108795,2339,823,27.00
108782,2337,826,27.00
108808,2336,819,27.00
108811,2333,824,27.00
108785,2339,825,27.00
108834,2334,823,27.00
109085,2336,823,27.00
109289,2338,832,27.00
109432,2331,826,27.00
109664,2334,823,27.00
109885,2350,821,27.00
110023,2338,823,27.00
110117,2339,819,27.00
110294,2335,819,27.00
110445,2338,821,27.00
110656,2333,823,27.00
111023,2332,824,27.00
111457,2333,823,27.00
111833,2333,823,27.00
112037,2333,826,27.00
112214,2331,829,27.00
112399,2331,826,27.00
112622,2330,823,27.00
112742,2333,826,27.00
112862,2330,821,27.00
112964,2332,823,27.00
112978,2330,823,27.00
112943,2327,825,27.00
112924,2326,823,27.00
112916,2334,822,27.00
112928,2335,826,27.00
113035,2326,823,27.00
113160,2330,825,27.00
113214,2335,822,27.00
113173,2336,825,27.00
113165,2331,823,27.00
113196,2330,825,27.00
113229,2327,820,27.00
113230,2330,819,27.00
113211,2333,823,27.00
113150,2329,821,27.00
113047,2333,817,27.00
112932,2326,821,27.00
112907,2333,823,27.00
112860,2333,826,27.00
112816,2329,822,27.00
112854,2333,827,27.00
112881,2332,822,27.00
112866,2332,826,27.00
112781,2322,825,27.00
112830,2326,818,27.00
113067,2326,819,27.00
113411,2327,823,27.00
113832,2328,825,27.00
114123,2329,822,27.00
114226,2325,822,27.00
114220,2325,823,27.00
114112,2329,823,27.00
113941,2325,824,27.00
113765,2326,825,27.00
113589,2322,823,27.00
113548,2333,823,27.00
113623,2327,823,27.00
113747,2321,822,27.00
113847,2322,822,27.00
113877,2325,820,27.00
113831,2321,820,27.00
113750,2323,822,27.00
113622,2330,826,27.00
113459,2322,827,27.00
113266,2325,822,27.00
113041,2323,825,27.00
112855,2327,824,27.00
112714,2327,821,27.00
112571,2326,823,27.00
112477,2324,823,27.00
112462,2334,823,27.00
112469,2319,823,27.00
112438,2331,822,27.00
112435,2331,825,27.00
112478,2327,826,27.00
112502,2324,823,27.00
112521,2323,823,27.00
112540,2327,823,27.00
112579,2326,823,27.00
112628,2326,826,27.00
112675,2320,820,27.00
112728,2321,825,27.00
112762,2329,822,27.00
112802,2326,817,27.00
112804,2325,819,27.00
112785,2325,822,27.00
112785,2327,823,27.00
112798,2331,823,27.00
112775,2325,823,27.00
112743,2331,823,27.00
112751,2332,821,27.00
112750,2331,825,27.00
112772,2327,827,27.00
112778,2330,826,27.00
112770,2333,826,27.00
112770,2322,822,27.00
112769,2327,821,27.00
112768,2327,823,27.00
112732,2331,826,27.00
112685,2330,821,27.00
112632,2336,827,27.00
112531,2328,825,27.00
112427,2331,821,27.00
112355,2320,819,27.00
112310,2325,822,27.00
112235,2327,818,27.00
112115,2329,822,27.00
112075,2328,821,27.00
112057,2327,829,27.00
112003,2327,823,27.00
111923,2331,825,27.00
111784,2330,826,27.00
111616,2334,826,27.00
111517,2325,825,27.00
111429,2330,825,27.00
111381,2331,823,27.00
111327,2331,826,27.00
111299,2327,826,27.00
111348,2326,822,27.00
111436,2327,823,27.00
111494,2324,817,27.00
111483,2329,820,27.00
111565,2336,821,27.00
111687,2327,823,27.00
111725,2320,825,27.00
111726,2327,823,27.00
111683,2329,821,27.00
111579,2322,817,27.00
111457,2322,824,27.00
111387,2330,821,27.00
111414,2330,825,27.00
111418,2330,823,27.00
111445,2333,823,27.00
111435,2327,821,27.00
111448,2331,823,27.00
111506,2323,823,27.00
111553,2326,821,27.00
111582,2327,825,27.00
111586,2326,825,27.00
111600,2323,823,27.00
111539,2321,820,27.00
111461,2322,817,27.00
111370,2337,819,27.00
111302,2331,819,27.00
111227,2329,822,27.00
111146,2325,823,27.00
111113,2330,823,27.00
111117,2323,819,27.00
111151,2325,819,27.00
111184,2325,818,27.00
111206,2327,827,27.00
111170,2332,825,27.00
111142,2330,821,27.00
111134,2331,823,27.00
111192,2323,825,27.00
111207,2332,823,27.00
111167,2331,826,27.00
111111,2331,825,27.00
111075,2320,825,27.00
111018,2330,825,27.00
110964,2333,821,27.00
110894,2323,819,27.00
110835,2331,822,27.00
110728,2330,823,27.00
110584,2330,825,27.00
110401,2329,823,27.00
110141,2327,826,27.00
109910,2332,825,27.00
109683,2333,825,27.00
109478,2331,822,27.00
109370,2327,821,27.00
109357,2331,819,27.00
109443,2326,818,27.00
109559,2335,821,27.00
109652,2332,822,27.00
109683,2329,826,27.00
109660,2332,823,27.00
109617,2327,822,27.00
109646,2326,820,27.00
109765,2327,822,27.00
109944,2330,821,27.00
110120,2330,822,27.00
110311,2327,825,27.00
110431,2332,823,27.00
110443,2332,826,27.00
110391,2334,823,27.00
110443,2327,825,27.00
110564,2334,821,27.00
110600,2329,825,27.00
110569,2333,822,27.00
110591,2329,824,27.00
110622,2329,821,27.00
110431,2331,820,27.00
110114,2334,822,27.00
109869,2335,822,27.00
109861,2335,823,27.00
109938,2337,826,27.00
109995,2337,821,27.00
110019,2331,824,27.00
110032,2329,823,27.00
110104,2337,823,27.00
110135,2334,823,27.00
110176,2335,826,27.00
110261,2334,823,27.00
110424,2334,826,27.00
110582,2335,823,27.00
110695,2335,820,27.00
110755,2326,823,27.00
110805,2332,822,27.00
110861,2336,823,27.00
110890,2333,821,27.00
110910,2335,823,27.00
110955,2335,822,27.00
110971,2335,826,27.00
111028,2338,821,27.00
111088,2337,823,27.00
111102,2335,822,27.00
111157,2336,822,27.00
111241,2336,822,27.00
111389,2335,823,27.00
111499,2334,826,27.00
111575,2334,821,27.00
111617,2333,818,27.00
111642,2334,830,27.00
111685,2338,822,27.00
111711,2333,822,27.00
111753,2329,823,27.00
111761,2327,820,27.00
111797,2334,818,27.00
111803,2329,817,27.00
111761,2334,822,27.00
111740,2331,820,27.00
111744,2336,821,27.00
111714,2331,823,27.00
111675,2334,825,27.00
111629,2336,823,27.00
111462,2333,823,27.00
111289,2333,824,27.00
111213,2338,827,27.00
111142,2331,826,27.00
111134,2333,831,27.00
111137,2336,823,27.00
111112,2336,819,27.00
111042,2339,820,27.00
111007,2341,823,27.00
111000,2339,822,27.00
111016,2335,822,27.00
111041,2334,826,27.00
111045,2335,823,27.00
111061,2334,823,27.00
111063,2337,825,27.00
111037,2331,825,27.00
111037,2334,821,27.00
111011,2335,825,27.00
110993,2337,828,27.00
110956,2334,822,27.00
110936,2335,822,27.00
110917,2334,826,27.00
110908,2333,823,27.00
110853,2336,820,27.00
110823,2332,823,27.00
110806,2334,816,27.00
110805,2337,819,27.00
110762,2332,822,27.00
110711,2337,826,27.00
110672,2335,823,27.00
110635,2335,822,27.00
110558,2338,823,27.00
110464,2339,825,27.00
110377,2338,824,27.00
110344,2331,831,27.00
110336,2334,822,27.00
110313,2329,821,27.00
110256,2333,819,27.00
110162,2335,826,27.00
110126,2336,825,27.00
110083,2337,823,27.00
110034,2335,823,27.00
109968,2332,822,27.00
109851,2329,818,27.00
109752,2335,816,27.00
109656,2339,822,27.00
109576,2333,827,27.00
109494,2335,825,27.00
109427,2335,826,27.00
109364,2332,826,27.00
109276,2337,826,27.00
109202,2341,823,27.00
109137,2333,821,27.00
109108,2331,826,27.00
109103,2332,822,27.00
109081,2341,817,27.00
109053,2339,819,27.00
108989,2336,821,27.00
108957,2335,821,27.00
108917,2337,823,27.00
108893,2336,823,27.00
108886,2336,822,27.00
108893,2336,826,27.00
108916,2339,822,27.00
108950,2337,819,27.00
108981,2335,826,27.00
109011,2334,823,27.00
109058,2340,822,27.00
109066,2336,822,27.00
109067,2352,824,27.00
109051,2335,825,27.00
109057,2332,822,27.00
109037,2334,822,27.00
109066,2335,816,27.00
109145,2336,822,27.00
109251,2339,821,27.00
109361,2337,823,27.00
109447,2338,822,27.00
109545,2338,826,27.00
109646,2334,826,27.00
109751,2336,825,27.00
109822,2335,823,27.00
109886,2338,826,27.00
109943,2331,822,27.00
109998,2335,822,27.00
110057,2333,818,27.00
110111,2338,819,27.00
110183,2335,823,27.00
110253,2334,823,27.00
110295,2332,830,27.00
110307,2330,821,27.00
110319,2330,823,27.00
110305,2333,825,27.00
110342,2332,822,27.00
110400,2332,824,27.00
110405,2329,821,27.00
110407,2333,827,27.00
110295,2331,823,27.00
110677,2331,830,27.00
110778,2329,823,27.00
110799,2326,826,27.00
110803,2332,823,27.00
110790,2330,823,27.00
110749,2326,825,27.00
110720,2325,822,27.00
110679,2326,820,27.00
110616,2327,818,27.00
110529,2321,823,27.00
110539,2334,824,27.00
110538,2330,826,27.00
110549,2329,826,27.00
110572,2327,826,27.00
110623,2332,827,27.00
110660,2331,822,27.00
110678,2323,822,27.00
110710,2322,823,27.00
110669,2325,822,27.00
110633,2327,822,27.00
110583,2326,823,27.00
110587,2331,819,27.00
110557,2338,823,27.00
110490,2323,823,27.00
110416,2335,823,27.00
110308,2327,820,27.00
110228,2327,819,27.00
110172,2335,819,27.00
110158,2334,821,27.00
110169,2336,825,27.00
110182,2334,822,27.00
110216,2334,826,27.00
110247,2335,826,27.00
110282,2334,823,27.00
110290,2336,822,27.00
110279,2334,823,27.00
110416,2327,822,27.00
110600,2337,821,27.00
110757,2333,816,27.00
110839,2336,820,27.00
110887,2335,822,27.00
110959,2337,822,27.00
111087,2338,823,27.00
111219,2338,827,27.00
111418,2337,825,27.00
111724,2340,823,27.00
112061,2341,825,27.00
112333,2337,825,27.00
112501,2335,820,27.00
112656,2334,822,27.00
112761,2334,825,27.00
112719,2338,823,27.00
112655,2337,823,27.00
112571,2334,826,27.00
112565,2334,826,27.00
112523,2333,821,27.00
112457,2336,820,27.00
112316,2333,833,27.00
112131,2338,822,27.00
111970,2340,818,27.00
111815,2337,822,27.00
111637,2334,825,27.00
111493,2337,823,27.00
111305,2331,821,27.00
111086,2345,823,27.00
110879,2340,829,27.00
110690,2333,825,27.00
110518,2335,821,27.00
110358,2331,820,27.00
110335,2331,820,27.00
110383,2339,822,27.00
110321,2341,823,27.00
110026,2336,824,27.00
109510,2336,825,27.00
109093,2337,821,27.00
108792,2337,816,27.00
108807,2339,818,27.00
109034,2337,823,27.00
109314,2340,823,27.00
109379,2337,824,27.00
109218,2335,823,27.00
108879,2339,827,27.00
108375,2342,826,27.00
107657,2336,823,27.00
106805,2340,822,27.00
106073,2339,825,27.00
105619,2337,826,27.00
105362,2336,825,27.00
105150,2340,816,27.00
104959,2340,817,27.00
104798,2337,817,27.00
104735,2341,821,27.00
104863,2339,827,27.00
105110,2337,825,27.00
105350,2337,825,27.00
105535,2342,822,27.00
105576,2340,827,27.00
105457,2338,822,27.00
105290,2343,823,27.00
105215,2343,824,27.00
105325,2336,822,27.00
105519,2331,826,27.00
105710,2337,823,27.00
105810,2340,825,27.00
105993,2339,824,27.00
106266,2337,823,27.00
106572,2338,821,27.00
106863,2341,825,27.00
107108,2336,823,27.00
107274,2337,822,27.00
107330,2333,818,27.00
107318,2338,817,27.00
107330,2338,822,27.00
107386,2337,826,27.00
107466,2341,821,27.00
107552,2342,825,27.00
107593,2335,823,27.00
107618,2338,822,27.00
107620,2340,822,27.00
107637,2336,825,27.00
107610,2338,823,27.00
107585,2339,822,27.00
107507,2338,819,27.00
107412,2343,821,27.00
107396,2339,825,27.00
107452,2341,821,27.00
107518,2338,825,27.00
107567,2337,821,27.00
107727,2346,817,27.00
107823,2331,823,27.00
107372,2341,821,27.00
106947,2342,823,27.00
106656,2339,819,27.00
106488,2338,823,27.00
106337,2339,822,27.00
106500,2340,825,27.00
106796,2341,822,27.00
106918,2346,823,27.00
106929,2341,822,27.00
106933,2340,827,27.00
106949,2336,823,27.00
106962,2337,819,27.00
107042,2336,819,27.00
107228,2339,818,27.00
107425,2341,822,27.00
107608,2342,823,27.00
107756,2346,822,27.00
107872,2343,824,27.00
107903,2341,823,27.00
107932,2341,822,27.00
107944,2340,826,27.00
107986,2343,825,27.00
108034,2336,825,27.00
108025,2342,823,27.00
108054,2342,822,27.00
108113,2340,826,27.00
108105,2347,826,27.00
108073,2343,823,27.00
108099,2345,827,27.00
108134,2338,823,27.00
108134,2338,825,27.00
108078,2337,825,27.00
108001,2338,819,27.00
107909,2337,821,27.00
107893,2336,821,27.00
107915,2338,822,27.00
107931,2340,821,27.00
107893,2339,825,27.00
107904,2340,825,27.00
107930,2336,824,27.00
107932,2342,822,27.00
107897,2338,823,27.00
107866,2343,822,27.00
107900,2334,824,27.00
107963,2351,821,27.00
107978,2341,818,27.00
107958,2334,819,27.00
107901,2337,821,27.00
107910,2336,820,27.00
107915,2337,828,27.00
107975,2329,821,27.00
107948,2332,823,27.00
107878,2339,818,27.00
107838,2331,819,27.00
107825,2336,818,27.00
107834,2338,820,27.00
107909,2339,822,27.00
107968,2339,823,27.00
108001,2337,825,27.00
107996,2337,823,27.00
107992,2342,825,27.00
108017,2340,825,27.00
108109,2342,825,27.00
108253,2335,822,27.00
108423,2339,823,27.00
108529,2338,821,27.00
108596,2341,817,27.00
108683,2336,826,27.00
108785,2343,817,27.00
108845,2338,822,27.00
108854,2338,820,27.00
108854,2337,822,27.00
108854,2345,823,27.00
108797,2340,823,27.00
108667,2342,823,27.00
108538,2337,823,27.00
108470,2338,819,27.00
108345,2341,822,27.00
108160,2336,824,27.00
107925,2340,821,27.00
107754,2337,825,27.00
107679,2339,827,27.00
107733,2339,821,27.00
107825,2341,823,27.00
107926,2340,823,27.00
107966,2342,828,27.00
107774,2342,823,27.00
107789,2339,825,27.00
107844,2339,819,27.00
107890,2331,821,27.00
108030,2336,822,27.00
108119,2337,821,27.00
108076,2338,821,27.00
107863,2339,821,27.00
107493,2340,823,27.00
107136,2339,821,27.00
106817,2341,823,27.00
106685,2342,822,27.00
106633,2342,826,27.00
106633,2340,826,27.00
106567,2339,825,27.00
106471,2339,818,27.00
106456,2345,821,27.00
106470,2339,821,27.00
106626,2341,825,27.00
106850,2343,826,27.00
107054,2338,823,27.00
107263,2341,823,27.00
107452,2340,823,27.00
107601,2341,822,27.00
107757,2346,823,27.00
107817,2342,822,27.00
107838,2338,831,27.00
107862,2339,824,27.00
107910,2339,822,27.00
108024,2342,822,27.00
108177,2339,818,27.00
108292,2341,817,27.00
108377,2341,821,27.00
108447,2343,823,27.00
108412,2341,822,27.00
108390,2350,823,27.00
108327,2345,823,27.00
108166,2346,823,27.00
108006,2347,822,27.00
107897,2352,822,27.00
107843,2346,823,27.00
107820,2349,823,27.00
107812,2351,825,27.00
107700,2348,822,27.00
107559,2351,825,27.00
107437,2349,823,27.00
107394,2352,823,27.00
107441,2352,824,27.00
107723,2350,824,27.00
108230,2350,822,27.00
108937,2349,823,27.00
109720,2350,820,27.00
110430,2347,822,27.00
111205,2354,820,27.00
112274,2347,817,27.00
113134,2351,824,27.00
113667,2347,822,27.00
114211,2345,825,27.00
114737,2351,825,27.00
115206,2347,831,27.00
115511,2347,818,27.00
115752,2342,825,27.00
115986,2343,825,27.00
116184,2343,821,27.00
116321,2336,823,27.00
116421,2335,826,27.00
116459,2329,826,27.00
116485,2338,822,27.00
116506,2336,823,27.00
116428,2337,823,27.00
116344,2338,823,27.00
116210,2338,822,27.00
116113,2338,823,27.00
116069,2333,823,27.00
116076,2327,823,27.00
116128,2339,818,27.00
116203,2334,819,27.00
116227,2331,818,27.00
116263,2335,820,27.00
116263,2327,817,27.00
116237,2333,828,27.00
116166,2335,824,27.00
116081,2333,823,27.00
116011,2336,826,27.00
115920,2336,824,27.00
115835,2334,823,27.00
115727,2335,825,27.00
115605,2337,825,27.00
115465,2341,825,27.00
115324,2335,823,27.00
115191,2329,828,27.00
115076,2362,823,27.00
114933,2333,819,27.00
114811,2334,825,27.00
114709,2334,822,27.00
114551,2334,823,27.00
114383,2338,823,27.00
114189,2335,824,27.00
113985,2333,822,27.00
113775,2334,823,27.00
113584,2337,822,27.00
113330,2341,820,27.00
112954,2347,832,27.00
112487,2346,819,27.00
112004,2349,822,27.00
111492,2349,822,27.00
110937,2352,823,27.00
110329,2355,822,27.00
109694,2352,823,27.00
109118,2359,826,27.00
108582,2356,823,27.00
108160,2363,823,27.00
107804,2364,824,27.00
107544,2357,823,27.00
107313,2354,822,27.00
107006,2357,822,27.00
106656,2357,823,27.00
106461,2359,816,27.00
106468,2358,828,27.00
106519,2365,821,27.00
106616,2359,822,27.00
106830,2355,821,27.00
107064,2352,823,27.00
107194,2349,823,27.00
107253,2352,821,27.00
107414,2352,821,27.00
107688,2352,820,27.00
107902,2357,820,27.00
108010,2352,822,27.00
107989,2350,823,27.00
107943,2350,822,27.00
107934,2352,822,27.00
107993,2352,825,27.00
107976,2351,823,27.00
107832,2350,825,27.00
107653,2351,825,27.00
107471,2349,825,27.00
107348,2350,826,27.00
107302,2352,821,27.00
107403,2347,825,27.00
107576,2348,821,27.00
107749,2342,822,27.00
107783,2348,821,27.00
107601,2347,823,27.00
107319,2346,816,27.00
107113,2350,826,27.00
107027,2347,825,27.00
106866,2350,825,27.00
106614,2349,823,27.00
106454,2347,827,27.00
106367,2341,823,27.00
106245,2345,823,27.00
106240,2351,821,27.00
106394,2348,819,27.00
106680,2343,818,27.00
106932,2350,818,27.00
107063,2351,821,27.00
107145,2351,823,27.00
107198,2351,825,27.00
107311,2350,824,27.00
107434,2349,821,27.00
107496,2351,823,27.00
107500,2352,823,27.00
107528,2349,822,27.00
107562,2346,822,27.00
107707,2342,823,27.00
107848,2349,823,27.00
107889,2349,822,27.00
107754,2348,825,27.00
107618,2355,822,27.00
107646,2349,823,27.00
107817,2347,827,27.00
108104,2345,826,27.00
108413,2349,825,27.00
108688,2347,823,27.00
108966,2345,823,27.00
109227,2346,819,27.00
109483,2353,823,27.00
109808,2347,822,27.00
110121,2347,821,27.00
110503,2342,821,27.00
110769,2349,819,27.00
110834,2343,820,27.00
110769,2341,821,27.00
110658,2336,824,27.00
110569,2341,823,27.00
110697,2339,823,27.00
111313,2333,825,27.00
112018,2341,825,27.00
112422,2343,821,27.00
112674,2339,823,27.00
112899,2340,827,27.00
112989,2339,825,27.00
112962,2339,822,27.00
112908,2329,827,27.00
112753,2341,822,27.00
112603,2337,821,27.00
112583,2337,825,27.00
112534,2337,825,27.00
112323,2337,827,27.00
112279,2337,823,27.00
112935,2339,823,27.00
114128,2333,823,27.00
114923,2331,826,27.00
115442,2326,822,27.00
115592,2323,821,27.00
114950,2321,819,27.00
113112,2327,818,27.00
110298,2336,819,27.00
107792,2343,822,27.00
107423,2352,822,27.00
110313,2348,823,27.00
113480,2346,826,27.00
115102,2338,822,27.00
115705,2337,827,27.00
116005,2327,824,27.00
116562,2320,823,27.00
116827,2320,822,27.00
116745,2317,823,27.00
116648,2319,826,27.00
116412,2315,822,27.00
116257,2311,825,27.00
116152,2306,824,27.00
115960,2304,822,27.00
115895,2309,825,27.00
115792,2304,823,27.00
115710,2307,825,27.00
115698,2307,825,27.00
115598,2305,819,27.00
115318,2306,826,27.00
115002,2309,819,27.00
114796,2307,826,27.00
114631,2304,826,27.00
114499,2307,826,27.00
114229,2304,822,27.00
113855,2308,821,27.00
113370,2311,819,27.00
113051,2315,821,27.00
112781,2311,822,27.00
112763,2311,821,27.00
112993,2313,819,27.00
113243,2311,821,27.00
113406,2310,823,27.00
113576,2310,825,27.00
113602,2309,826,27.00
113535,2311,823,27.00
113245,2307,823,27.00
112939,2311,823,27.00
112646,2311,823,27.00
112175,2315,819,27.00
111099,2320,821,27.00
109639,2320,823,27.00
108458,2322,824,27.00
107531,2327,823,27.00
106606,2331,826,27.00
105235,2329,821,27.00
103850,2335,827,27.00
102944,2335,827,27.00
102425,2339,825,27.00
102309,2331,823,27.00
102347,2333,823,27.00
102240,2334,823,27.00
102059,2335,819,27.00
102130,2330,818,27.00
102416,2330,819,27.00
102890,2333,822,27.00
103366,2334,823,27.00
103733,2330,821,27.00
103914,2333,825,27.00
104072,2333,822,27.00
104285,2334,823,27.00
104400,2334,823,27.00
104354,2334,826,27.00
104217,2332,822,27.00
104030,2336,827,27.00
103741,2335,820,27.00
103471,2331,822,27.00
103173,2342,826,27.00
102839,2332,822,27.00
102441,2330,822,27.00
102237,2336,827,27.00
102304,2334,823,27.00
102347,2336,826,27.00
102285,2334,822,27.00
102315,2336,822,27.00
102363,2333,822,27.00
102444,2337,822,27.00
102502,2335,821,27.00
102680,2365,825,27.00
102930,2334,819,27.00
103084,2337,821,27.00
103108,2335,818,27.00
103202,2337,819,27.00
103392,2336,823,27.00
103589,2339,822,27.00
103888,2331,823,27.00
104225,2334,826,27.00
104405,2337,822,27.00
104391,2339,825,27.00
104375,2331,826,27.00
104330,2335,822,27.00
104123,2335,818,27.00
103720,2336,823,27.00
103012,2332,823,27.00
102310,2337,823,27.00
101599,2334,825,27.00
101066,2337,822,27.00
100662,2337,822,27.00
100518,2336,823,27.00
100436,2342,825,27.00
100305,2340,825,27.00
100107,2338,823,27.00
99851,2343,822,27.00
99685,2336,820,27.00
99749,2338,820,27.00
99694,2336,822,27.00
99266,2351,830,27.00
99087,2338,819,27.00
99071,2342,823,27.00
98662,2333,823,27.00
98321,2339,823,27.00
98644,2335,826,27.00
99226,2337,825,27.00
99815,2336,826,27.00
100261,2331,823,27.00
100447,2338,821,27.00
100450,2336,823,27.00
100318,2336,821,27.00
100260,2336,823,27.00
100330,2339,824,27.00
100483,2336,825,27.00
100693,2338,825,27.00
100830,2330,826,27.00
100832,2339,827,27.00
100722,2343,823,27.00
100525,2335,821,27.00
100506,2330,821,27.00
100493,2330,821,27.00
100468,2338,822,27.00
100476,2340,818,27.00
100634,2338,821,27.00
100773,2341,821,27.00
100922,2336,826,27.00
101184,2336,818,27.00
101441,2338,822,27.00
101588,2337,827,27.00
101808,2341,821,27.00
102003,2343,827,27.00
101985,2339,821,27.00
101945,2336,821,27.00
101957,2337,824,27.00
101971,2337,817,27.00
101938,2334,817,27.00
101923,2341,823,27.00
101960,2345,825,27.00
102043,2342,831,27.00
102169,2337,822,27.00
101945,2338,822,27.00
100343,2335,826,27.00
100438,2334,826,27.00
100533,2335,824,27.00
100823,2335,822,27.00
101282,2334,824,27.00
101902,2334,822,27.00
102499,2335,820,27.00
102981,2341,821,27.00
103247,2335,823,27.00
103256,2334,825,27.00
103073,2337,821,27.00
102753,2341,821,27.00
102486,2335,820,27.00
102426,2339,818,27.00
102500,2339,819,27.00
102675,2339,821,27.00
102972,2341,825,27.00
103278,2346,826,27.00
103498,2341,823,27.00
103716,2338,826,27.00
103992,2339,823,27.00
103992,2337,825,27.00
103517,2340,825,27.00
103112,2337,823,27.00
102828,2341,824,27.00
102529,2339,822,27.00
102310,2345,825,27.00
102230,2340,824,27.00
102084,2336,827,27.00
101806,2337,819,27.00
101554,2351,823,27.00
101480,2343,826,27.00
101516,2343,825,27.00
101555,2335,821,27.00
101494,2338,823,27.00
101348,2335,823,27.00
101240,2339,818,27.00
101153,2341,822,27.00
101124,2339,819,27.00
101096,2339,821,27.00
101053,2342,824,27.00
100893,2340,823,27.00
100638,2342,823,27.00
100422,2339,826,27.00
100349,2339,822,27.00
100404,2343,827,27.00
100523,2343,825,27.00
100639,2341,826,27.00
100695,2346,823,27.00
100756,2339,822,27.00
100846,2338,825,27.00
100950,2341,822,27.00
101128,2341,831,27.00
101303,2339,826,27.00
101437,2341,824,27.00
101571,2339,824,27.00
101603,2341,822,27.00
101589,2342,823,27.00
101529,2338,822,27.00
101463,2339,823,27.00
101490,2335,821,27.00
101532,2338,821,27.00
101599,2337,817,27.00
101628,2340,819,27.00
101636,2337,819,27.00
101600,2336,822,27.00
101577,2340,825,27.00
101545,2340,822,27.00
101548,2337,822,27.00
101537,2343,826,27.00
101520,2341,825,27.00
101497,2337,823,27.00
101534,2341,823,27.00
101618,2339,827,27.00
101617,2339,825,27.00
101620,2340,822,27.00
101565,2339,822,27.00
101573,2341,823,27.00
101636,2339,822,27.00
101578,2341,822,27.00
101465,2342,822,27.00
101397,2341,825,27.00
101404,2342,822,27.00
101333,2351,823,27.00
101137,2339,822,27.00
100969,2336,825,27.00
100978,2353,822,27.00
101177,2330,822,27.00
101376,2333,819,27.00
101449,2341,820,27.00
101393,2345,822,27.00
101392,2343,823,27.00
101597,2340,823,27.00
101948,2341,825,27.00
102347,2346,823,27.00
102626,2341,825,27.00
102891,2343,826,27.00
103068,2343,823,27.00
103233,2343,822,27.00
103390,2343,823,27.00
103594,2340,827,27.00
103894,2338,825,27.00
104066,2335,823,27.00
104152,2335,823,27.00
104217,2334,824,27.00
104232,2322,825,27.00
104201,2337,823,27.00
104307,2341,825,27.00
104590,2333,825,27.00
104837,2331,820,27.00
104971,2343,822,27.00
104984,2338,820,27.00
104934,2333,821,27.00
104957,2331,829,27.00
105019,2335,822,27.00
105168,2334,823,27.00
105361,2335,821,27.00
105550,2332,826,27.00
105722,2333,822,27.00
105817,2334,823,27.00
105887,2340,829,27.00
105989,2334,826,27.00
106052,2333,827,27.00
106058,2336,822,27.00
106018,2335,825,27.00
105836,2333,827,27.00
105698,2333,823,27.00
105689,2338,823,27.00
105667,2333,823,27.00
105720,2334,824,27.00
105757,2335,826,27.00
105757,2337,821,27.00
105846,2333,822,27.00
105952,2331,822,27.00
105995,2332,822,27.00
105892,2329,823,27.00
105746,2333,818,27.00
105639,2338,830,27.00
105526,2334,822,27.00
105437,2334,819,27.00
105306,2336,823,27.00
105335,2334,826,27.00
105408,2340,823,27.00
105519,2339,825,27.00
105611,2335,826,27.00
105687,2333,823,27.00
105723,2334,823,27.00
105710,2334,827,27.00
105769,2335,824,27.00
105852,2333,823,27.00
105882,2335,820,27.00
105814,2334,819,27.00
105799,2335,826,27.00
105830,2339,822,27.00
105743,2335,826,27.00
105609,2330,821,27.00
105526,2338,822,27.00
105424,2333,823,27.00
105290,2334,817,27.00
105140,2338,823,27.00
105027,2338,821,27.00
104946,2341,822,27.00
104845,2338,822,27.00
104767,2337,826,27.00
104675,2341,823,27.00
104643,2340,823,27.00
104641,2337,822,27.00
104673,2337,823,27.00
104677,2339,821,27.00
104693,2333,826,27.00
104744,2338,825,27.00
104834,2333,823,27.00
104927,2337,821,27.00
104958,2335,816,27.00
104925,2335,821,27.00
104883,2336,822,27.00
104854,2339,820,27.00
104805,2337,819,27.00
104843,2335,823,27.00
104878,2334,826,27.00
104944,2335,822,27.00
105033,2335,818,27.00
105178,2333,816,27.00
105317,2342,818,27.00
105436,2334,821,27.00
105491,2333,823,27.00
105587,2338,821,27.00
105696,2338,823,27.00
105813,2338,823,27.00
105917,2335,823,27.00
106014,2342,822,27.00
106156,2337,822,27.00
106298,2341,823,27.00
106464,2349,823,27.00
106602,2337,822,27.00
106773,2338,819,27.00
106886,2338,827,27.00
106965,2342,821,27.00
107024,2339,821,27.00
107123,2340,821,27.00
107221,2347,825,27.00
107307,2341,825,27.00
107406,2343,825,27.00
107494,2342,826,27.00
107590,2339,821,27.00
107677,2340,821,27.00
107738,2339,822,27.00
107805,2341,823,27.00
107877,2343,822,27.00
107952,2340,826,27.00
108037,2345,826,27.00
108130,2342,823,27.00
108172,2342,826,27.00
108109,2339,826,27.00
108024,2341,823,27.00
107995,2342,823,27.00
107991,2343,826,27.00
108026,2336,822,27.00
108081,2365,825,27.00
108118,2341,824,27.00
108125,2337,818,27.00
108121,2343,818,27.00
108075,2350,823,27.00
108053,2345,821,27.00
108020,2345,823,27.00
107970,2336,826,27.00
107932,2336,823,27.00
107954,2341,822,27.00
107951,2339,823,27.00
107925,2340,823,27.00
107928,2342,823,27.00
107976,2339,823,27.00
108016,2342,827,27.00
108056,2338,823,27.00
108140,2342,825,27.00
108232,2339,825,27.00
108335,2338,823,27.00
108416,2341,823,27.00
108493,2339,824,27.00
108529,2335,826,27.00
108518,2338,823,27.00
108483,2335,822,27.00
108481,2339,822,27.00
108544,2340,821,27.00
108584,2339,821,27.00
108553,2339,821,27.00
108569,2338,825,27.00
108635,2339,823,27.00
108710,2337,825,27.00
108801,2339,825,27.00
108886,2340,823,27.00
108971,2336,823,27.00
109086,2326,826,27.00
109193,2337,823,27.00
109328,2334,829,27.00
109475,2331,822,27.00
109658,2339,826,27.00
109824,2334,825,27.00
109939,2339,825,27.00
110098,2339,823,27.00
110316,2338,822,27.00
110530,2333,821,27.00
110690,2331,825,27.00
110807,2338,823,27.00
110917,2336,823,27.00
110998,2335,819,27.00
111029,2333,817,27.00
111078,2336,821,27.00
111132,2335,821,27.00
111229,2335,822,27.00
111338,2335,822,27.00
111406,2335,823,27.00
111467,2334,821,27.00
111526,2337,825,27.00
111502,2333,821,27.00
111423,2336,825,27.00
111283,2337,823,27.00
111160,2331,825,27.00
111092,2331,824,27.00
111031,2330,818,27.00
110985,2336,818,27.00
111022,2335,828,27.00
111178,2339,823,27.00
111392,2337,824,27.00
111533,2330,825,27.00
111604,2332,823,27.00
111605,2334,820,27.00
111591,2335,821,27.00
111645,2334,820,27.00
111818,2335,821,27.00
111991,2337,822,27.00
112174,2341,822,27.00
112410,2337,826,27.00
112699,2336,825,27.00
113005,2342,822,27.00
113344,2342,826,27.00
113707,2336,828,27.00
114043,2334,825,27.00
114325,2327,823,27.00
114561,2321,821,27.00
114645,2320,822,27.00
114790,2325,819,27.00
114932,2319,818,27.00
115045,2320,820,27.00
115138,2316,823,27.00
115202,2319,823,27.00
115240,2317,825,27.00
115382,2315,824,27.00
115625,2312,823,27.00
115775,2311,819,27.00
115783,2310,827,27.00
115583,2318,818,27.00
115365,2314,822,27.00
115274,2311,822,27.00
115197,2311,823,27.00
115156,2313,823,27.00
115137,2318,829,27.00
115107,2311,823,27.00
115033,2318,826,27.00
114934,2320,825,27.00
114828,2319,819,27.00
114777,2311,821,27.00
114872,2310,823,27.00
115358,2318,818,27.00
116090,2311,818,27.00
116918,2320,820,27.00
117560,2318,822,27.00
118167,2315,822,27.00
118916,2319,825,27.00
119583,2311,823,27.00
120074,2307,823,27.00
120501,2307,822,27.00
120803,2311,823,27.00
120972,2317,826,27.00
121029,2312,823,27.00
120966,2310,822,27.00
120843,2311,826,27.00
120631,2315,829,27.00
120401,2315,825,27.00
120141,2311,821,27.00
119864,2317,823,27.00
119665,2317,822,27.00
119558,2307,821,27.00
119532,2311,823,27.00
119533,2315,821,27.00
119554,2309,818,27.00
119610,2317,819,27.00
119695,2316,823,27.00
119776,2314,823,27.00
119840,2313,820,27.00
119888,2316,825,27.00
